Shimmer_B640_PPG_A13_CAL
mV
1180.952381
1175.824176
1171.428571
1168.498168
1169.230769
1171.428571
1172.161172
1172.161172
1170.695971
1167.032967
1167.032967
1164.835165
1162.637363
1159.70696
1156.776557
1155.311355
1153.846154
1153.846154
1153.846154
1154.578755
1155.311355
1156.043956
1158.241758
1158.974359
1158.974359
1159.70696
1158.974359
1159.70696
1159.70696
1158.241758
1156.776557
1153.113553
1150.915751
1151.648352
1153.113553
1158.241758
1168.498168
1181.684982
1198.534799
1221.245421
1250.549451
1287.912088
1334.065934
1389.74359
1451.282051
1517.216117
1583.882784
1652.014652
1718.681319
1781.684982
1834.432234
1879.85348
1910.622711
1933.333333
1945.054945
1950.18315
1949.450549
1941.391941
1931.135531
1917.216117
1898.901099
1878.388278
1856.410256
1830.769231
1801.465201
1771.428571
1742.124542
1714.285714
1687.912088
1665.934066
1649.084249
1632.967033
1620.512821
1611.721612
1606.593407
1602.930403
1599.267399
1594.139194
1591.941392
1587.545788
1583.882784
1575.824176
1563.369963
1550.18315
1535.531136
1520.14652
1503.296703
1484.981685
1464.468864
1444.688645
1421.978022
1400
1381.684982
1364.102564
1345.787546
1327.472527
1310.622711
1295.238095
1283.516484
1274.725275
1267.399267
1261.538462
1256.410256
1251.282051
1246.153846
1241.758242
1238.827839
1235.897436
1235.164835
1238.095238
1241.758242
1245.421245
1250.549451
1253.479853
1252.747253
1250.549451
1246.153846
1241.758242
1238.095238
1233.699634
1232.234432
1227.838828
1225.641026
1224.175824
1221.245421
1216.117216
1210.989011
1204.395604
1194.871795
1186.813187
1178.021978
1172.161172
1164.102564
1156.776557
1150.915751
1144.322344
1141.391941
1142.124542
1145.054945
1147.252747
1149.450549
1150.915751
1150.915751
1153.846154
1154.578755
1157.509158
1163.369963
1172.161172
1180.952381
1189.74359
1194.871795
1197.069597
1197.802198
1197.802198
1196.336996
1190.47619
1184.615385
1180.21978
1175.091575
1169.230769
1164.102564
1158.241758
1152.380952
1146.520147
1142.124542
1141.391941
1141.391941
1142.124542
1143.589744
1146.520147
1150.915751
1158.974359
1169.230769
1185.347985
1209.52381
1241.025641
1280.586081
1326.739927
1378.754579
1435.897436
1493.772894
1549.450549
1603.663004
1651.282051
1692.307692
1726.739927
1751.648352
1767.032967
1775.091575
1775.091575
1771.428571
1764.835165
1759.70696
1752.380952
1741.391941
1726.007326
1705.494505
1680.586081
1651.282051
1622.710623
1593.406593
1564.835165
1542.857143
1522.344322
1505.494505
1499.6337
1498.901099
1503.296703
1510.622711
1517.948718
1522.344322
1526.007326
1528.937729
1531.135531
1529.67033
1522.344322
1509.89011
1495.970696
1480.586081
1466.666667
1454.945055
1442.490842
1427.106227
1410.989011
1389.74359
1369.230769
1349.450549
1329.67033
1310.622711
1295.970696
1280.586081
1268.131868
1258.608059
1248.351648
1240.29304
1235.164835
1230.769231
1224.908425
1219.78022
1213.186813
1207.326007
1204.395604
1201.465201
1199.267399
1198.534799
1197.069597
1195.604396
1194.139194
1193.406593
1196.336996
1197.069597
1199.267399
1201.465201
1202.197802
1201.465201
1200.732601
1200
1195.604396
1194.139194
1191.941392
1189.74359
1188.278388
1186.080586
1183.882784
1181.684982
1179.487179
1178.021978
1178.754579
1179.487179
1180.952381
1181.684982
1183.150183
1188.278388
1192.673993
1195.604396
1200
1202.197802
1203.663004
1205.860806
1205.860806
1204.395604
1201.465201
1197.802198
1194.139194
1191.208791
1187.545788
1184.615385
1180.21978
1178.754579
1179.487179
1179.487179
1178.021978
1180.21978
1180.21978
1181.684982
1183.150183
1184.615385
1185.347985
1187.545788
1189.010989
1191.941392
1200
1211.721612
1229.304029
1256.410256
1288.644689
1324.542125
1363.369963
1405.128205
1446.886447
1487.912088
1523.809524
1557.509158
1585.347985
1608.791209
1629.304029
1646.153846
1659.340659
1668.864469
1672.527473
1668.864469
1659.340659
1643.956044
1624.175824
1604.395604
1581.684982
1559.70696
1534.065934
1510.622711
1490.10989
1471.062271
1456.410256
1447.619048
1444.688645
1446.153846
1451.282051
1456.410256
1462.271062
1469.59707
1474.725275
1479.120879
1479.85348
1479.120879
1474.725275
1467.399267
1456.410256
1446.886447
1435.164835
1423.443223
1411.721612
1397.069597
1381.684982
1367.765568
1353.846154
1337.728938
1322.344322
1306.959707
1292.307692
1278.388278
1265.934066
1254.945055
1246.153846
1240.29304
1235.897436
1231.501832
1226.373626
1224.175824
1218.315018
1213.919414
1209.52381
1204.395604
1197.802198
1190.47619
1180.952381
1172.893773
1167.765568
1166.300366
1166.300366
1165.567766
1165.567766
1165.567766
1165.567766
1167.765568
1166.300366
1164.102564
1162.637363
1160.43956
1158.974359
1159.70696
1161.172161
1163.369963
1165.567766
1168.498168
1169.96337
1170.695971
1171.428571
1172.893773
1174.358974
1179.487179
1181.684982
1184.615385
1188.278388
1191.208791
1196.336996
1203.663004
1210.989011
1218.315018
1221.978022
1227.106227
1227.838828
1226.373626
1222.710623
1219.78022
1217.582418
1213.919414
1213.186813
1210.989011
1207.326007
1201.465201
1197.069597
1193.406593
1189.74359
1189.010989
1186.813187
1188.278388
1192.673993
1197.802198
1205.128205
1215.384615
1230.03663
1249.81685
1276.923077
1312.820513
1355.311355
1402.930403
1453.479853
1505.494505
1556.776557
1605.128205
1647.619048
1682.783883
1709.89011
1731.135531
1746.520147
1758.241758
1764.102564
1766.300366
1765.567766
1761.904762
1755.311355
1747.985348
1734.065934
1718.681319
1698.901099
1676.190476
1653.479853
1629.304029
1610.25641
1598.534799
1589.010989
1581.684982
1577.289377
1575.091575
1575.091575
1577.289377
1579.487179
1579.487179
1580.21978
1578.754579
1574.358974
1567.032967
1559.70696
1550.915751
1539.194139
1527.472527
1513.553114
1498.168498
1482.051282
1464.468864
1446.153846
1430.03663
1410.989011
1394.871795
1374.358974
1354.578755
1335.531136
1317.948718
1304.761905
1293.040293
1282.051282
1274.725275
1268.131868
1261.538462
1252.747253
1244.688645
1238.095238
1234.432234
1231.501832
1228.571429
1227.838828
1231.501832
1230.03663
1224.908425
1217.582418
1211.721612
1208.058608
1205.128205
1205.860806
1207.326007
1208.058608
1209.52381
1208.791209
1207.326007
1207.326007
1207.326007
1208.058608
1210.25641
1211.721612
1213.186813
1215.384615
1218.315018
1220.512821
1221.245421
1222.710623
1223.443223
1221.978022
1222.710623
1221.245421
1221.245421
1221.245421
1220.512821
1216.849817
1217.582418
1215.384615
1210.989011
1205.860806
1201.465201
1200.732601
1203.663004
1209.52381
1214.652015
1219.78022
1224.908425
1229.304029
1230.03663
1227.106227
1221.245421
1213.919414
1207.326007
1202.197802
1199.267399
1199.267399
1202.930403
1204.395604
1205.860806
1208.791209
1210.25641
1213.919414
1224.175824
1233.699634
1247.619048
1263.736264
1287.179487
1317.216117
1356.776557
1404.395604
1457.875458
1513.553114
1572.161172
1625.641026
1675.457875
1723.076923
1762.637363
1794.139194
1817.582418
1832.967033
1841.025641
1839.56044
1835.897436
1828.571429
1818.315018
1807.326007
1794.871795
1780.952381
1769.230769
1752.380952
1734.065934
1712.820513
1693.772894
1672.527473
1651.282051
1629.304029
1607.326007
1588.278388
1573.626374
1563.369963
1558.974359
1556.043956
1556.776557
1556.043956
1555.311355
1556.043956
1552.380952
1545.787546
1540.659341
1531.868132
1520.879121
1509.157509
1496.703297
1482.783883
1468.864469
1457.875458
1446.153846
1432.234432
1420.512821
1406.593407
1394.871795
1380.21978
1367.032967
1352.380952
1337.728938
1325.274725
1312.820513
1301.831502
1294.505495
1289.377289
1286.446886
1282.051282
1280.586081
1279.120879
1276.190476
1273.992674
1270.32967
1267.399267
1264.468864
1260.07326
1256.410256
1251.282051
1246.153846
1237.362637
1229.304029
1221.245421
1216.117216
1211.721612
1208.791209
1208.058608
1207.326007
1205.860806
1203.663004
1205.128205
1205.860806
1205.860806
1207.326007
1207.326007
1206.593407
1205.128205
1205.128205
1203.663004
1201.465201
1201.465201
1201.465201
1200
1200.732601
1201.465201
1204.395604
1206.593407
1211.721612
1215.384615
1219.78022
1224.175824
1229.304029
1232.967033
1235.164835
1237.362637
1236.630037
1235.897436
1232.967033
1231.501832
1227.106227
1223.443223
1220.512821
1219.78022
1219.78022
1221.978022
1222.710623
1221.978022
1220.512821
1220.512821
1219.78022
1219.78022
1220.512821
1222.710623
1226.373626
1231.501832
1242.490842
1262.271062
1288.644689
1322.344322
1361.172161
1406.593407
1459.340659
1515.018315
1570.695971
1621.978022
1670.32967
1711.355311
1743.589744
1765.567766
1778.754579
1783.150183
1780.952381
1773.626374
1761.172161
1745.054945
1727.472527
1706.959707
1684.249084
1660.07326
1634.432234
1608.791209
1586.813187
1564.835165
1544.322344
1530.40293
1519.413919
1508.424908
1501.098901
1495.970696
1496.703297
1500.3663
1506.227106
1512.820513
1520.879121
1526.739927
1528.205128
1532.600733
1530.40293
1522.344322
1510.622711
1495.970696
1479.85348
1463.736264
1448.351648
1430.03663
1413.919414
1397.802198
1384.615385
1372.893773
1361.904762
1350.18315
1341.391941
1333.333333
1326.739927
1320.14652
1311.355311
1296.703297
1282.783883
1266.666667
1253.479853
1241.758242
1231.501832
1223.443223
1218.315018
1213.186813
1210.25641
1208.791209
1208.058608
1207.326007
1210.25641
1214.652015
1217.582418
1224.908425
1230.769231
1235.164835
1238.827839
1240.29304
1241.025641
1241.758242
1241.025641
1238.827839
1238.095238
1235.897436
1234.432234
1233.699634
1235.164835
1234.432234
1232.967033
1230.769231
1228.571429
1227.106227
1224.908425
1222.710623
1220.512821
1217.582418
1217.582418
1216.117216
1215.384615
1215.384615
1217.582418
1221.978022
1224.908425
1229.304029
1233.699634
1236.630037
1240.29304
1242.490842
1242.490842
1243.223443
1241.758242
1239.56044
1239.56044
1238.095238
1236.630037
1235.897436
1232.967033
1232.234432
1233.699634
1233.699634
1237.362637
1244.688645
1257.875458
1276.190476
1301.831502
1334.065934
1371.428571
1414.652015
1462.271062
1513.553114
1569.230769
1621.978022
1670.32967
1714.285714
1750.18315
1777.289377
1798.534799
1810.25641
1817.582418
1817.582418
1813.186813
1803.663004
1794.139194
1785.347985
1773.626374
1760.43956
1742.124542
1720.14652
1698.168498
1674.725275
1651.282051
1630.769231
1610.989011
1594.139194
1581.684982
1570.695971
1561.172161
1553.113553
1547.985348
1543.589744
1542.124542
1542.857143
1543.589744
1544.322344
1546.520147
1547.985348
1547.985348
1545.054945
1540.659341
1531.868132
1519.413919
1503.296703
1487.912088
1471.062271
1452.014652
1432.234432
1410.25641
1389.010989
1368.498168
1348.717949
1330.40293
1316.483516
1306.227106
1297.435897
1292.307692
1286.446886
1282.051282
1277.655678
1273.260073
1269.59707
1266.666667
1263.003663
1258.608059
1256.410256
1257.142857
1254.945055
1249.084249
1242.490842
1236.630037
1230.769231
1226.373626
1221.245421
1218.315018
1217.582418
1218.315018
1220.512821
1223.443223
1224.908425
1225.641026
1225.641026
1226.373626
1227.106227
1226.373626
1227.838828
1227.838828
1228.571429
1232.234432
1234.432234
1236.630037
1237.362637
1238.827839
1239.56044
1239.56044
1240.29304
1239.56044
1238.095238
1238.827839
1238.827839
1238.095238
1241.758242
1243.956044
1243.223443
1245.421245
1244.688645
1244.688645
1243.956044
1242.490842
1240.29304
1238.095238
1235.897436
1235.164835
1232.967033
1233.699634
1233.699634
1235.164835
1235.164835
1232.234432
1230.769231
1232.234432
1235.897436
1242.490842
1252.747253
1268.864469
1290.842491
1320.879121
1360.43956
1405.860806
1455.677656
1509.89011
1565.567766
1623.443223
1678.388278
1730.40293
1776.556777
1818.315018
1852.014652
1875.457875
1891.575092
1902.564103
1906.227106
1906.959707
1901.098901
1892.307692
1879.85348
1862.271062
1841.758242
1821.245421
1798.534799
1777.289377
1756.776557
1734.798535
1712.087912
1694.505495
1678.388278
1667.399267
1660.805861
1657.142857
1655.677656
1657.142857
1658.608059
1660.07326
1660.07326
1660.805861
1659.340659
1654.945055
1649.084249
1636.630037
1619.047619
1599.267399
1575.824176
1550.18315
1526.739927
1503.296703
1479.85348
1459.340659
1439.56044
1423.443223
1410.25641
1396.336996
1383.150183
1372.161172
1357.509158
1344.322344
1330.40293
1319.413919
1309.157509
1301.098901
1295.238095
1288.644689
1282.783883
1280.586081
1280.586081
1280.586081
1279.85348
1276.923077
1273.992674
1271.062271
1267.399267
1264.468864
1260.805861
1259.340659
1257.142857
1257.142857
1255.677656
1255.677656
1253.479853
1250.549451
1247.619048
1245.421245
1241.758242
1237.362637
1235.897436
1235.897436
1235.897436
1238.095238
1236.630037
1237.362637
1237.362637
1238.095238
1238.095238
1236.630037
1236.630037
1233.699634
1232.967033
1230.03663
1230.769231
1231.501832
1230.769231
1230.769231
1227.838828
1227.106227
1225.641026
1224.908425
1223.443223
1221.245421
1221.978022
1223.443223
1226.373626
1230.769231
1233.699634
1234.432234
1236.630037
1239.56044
1243.223443
1246.153846
1244.688645
1238.827839
1230.03663
1219.78022
1210.989011
1202.930403
1200
1200
1202.197802
1215.384615
1234.432234
1263.003663
1302.564103
1350.915751
1406.593407
1471.062271
1536.996337
1602.197802
1664.468864
1720.879121
1769.96337
1812.454212
1844.688645
1868.131868
1882.783883
1890.10989
1890.842491
1887.179487
1874.725275
1857.142857
1834.432234
1811.721612
1784.615385
1757.509158
1731.135531
1704.029304
1676.190476
1652.747253
1630.769231
1613.186813
1599.267399
1589.74359
1583.882784
1582.417582
1586.813187
1593.406593
1602.930403
1612.454212
1619.78022
1625.641026
1627.838828
1627.838828
1624.175824
1616.849817
1608.791209
1596.336996
1582.417582
1566.300366
1548.717949
1528.205128
1506.227106
1484.249084
1459.340659
1434.432234
1411.721612
1389.010989
1369.230769
1350.915751
1335.531136
1320.14652
1306.959707
1295.970696
1287.179487
1280.586081
1274.725275
1271.062271
1265.934066
1260.07326
1255.677656
1249.81685
1243.956044
1243.223443
1241.025641
1238.827839
1236.630037
1234.432234
1230.769231
1230.03663
1227.838828
1227.838828
1232.234432
1235.897436
1239.56044
1241.758242
1243.956044
1246.886447
1246.886447
1249.81685
1254.212454
1257.875458
1262.271062
1264.468864
1265.934066
1266.666667
1263.736264
1258.608059
1254.212454
1249.81685
1246.886447
1245.421245
1243.956044
1243.223443
1238.827839
1235.164835
1231.501832
1230.03663
1228.571429
1226.373626
1224.175824
1222.710623
1221.245421
1219.047619
1217.582418
1217.582418
1215.384615
1216.849817
1215.384615
1216.849817
1219.047619
1223.443223
1232.967033
1243.223443
1253.479853
1268.131868
1283.516484
1304.761905
1330.40293
1361.904762
1400.732601
1445.421245
1493.772894
1542.124542
1590.47619
1637.362637
1679.120879
1716.483516
1744.322344
1764.835165
1778.754579
1786.813187
1786.813187
1780.952381
1769.96337
1754.578755
1735.531136
1715.018315
1691.575092
1667.399267
1641.758242
1616.117216
1589.74359
1566.300366
1548.717949
1535.531136
1523.809524
1517.948718
1514.285714
1512.087912
1512.820513
1515.018315
1517.948718
1525.274725
1531.868132
1536.996337
1539.92674
1540.659341
1538.461538
1535.531136
1528.205128
1520.879121
1509.89011
1496.703297
1483.516484
1467.399267
1453.479853
1435.897436
1417.582418
1399.267399
1380.21978
1362.637363
1345.054945
1331.135531
1320.14652
1315.018315
1309.89011
1306.227106
1305.494505
1304.029304
1301.831502
1301.831502
1298.901099
1296.703297
1291.575092
1286.446886
1279.85348
1273.260073
1268.864469
1265.201465
1261.538462
1260.805861
1262.271062
1262.271062
1262.271062
1259.340659
1256.410256
1253.479853
1247.619048
1241.025641
1235.897436
1230.03663
1225.641026
1224.908425
1224.908425
1226.373626
1227.838828
1231.501832
1238.827839
1243.956044
1251.282051
1257.875458
1264.468864
1273.260073
1279.120879
1282.783883
1284.249084
1284.249084
1279.85348
1275.457875
1270.32967
1266.666667
1261.538462
1252.747253
1241.758242
1229.304029
1219.047619
1212.454212
1207.326007
1205.128205
1205.860806
1205.860806
1209.52381
1216.117216
1227.106227
1247.619048
1275.457875
1313.553114
1360.43956
1416.849817
1482.051282
1550.18315
1626.373626
1701.831502
1774.358974
1842.490842
1900.3663
1947.252747
1983.882784
2009.52381
2021.245421
2022.710623
2015.384615
2003.663004
1986.813187
1967.765568
1945.054945
1922.344322
1896.703297
1868.131868
1841.025641
1809.52381
1780.21978
1752.380952
1726.739927
1702.564103
1682.783883
1666.666667
1655.677656
1649.084249
1646.153846
1647.619048
1648.351648
1649.81685
1651.282051
1649.81685
1649.084249
1644.688645
1638.827839
1633.699634
1624.908425
1612.454212
1599.267399
1584.615385
1569.230769
1551.648352
1532.600733
1513.553114
1494.505495
1476.190476
1459.340659
1443.956044
1431.501832
1418.315018
1407.326007
1398.534799
1390.47619
1383.150183
1375.824176
1369.96337
1361.904762
1353.113553
1347.252747
1340.659341
1334.065934
1329.67033
1324.542125
1319.413919
1314.285714
1307.692308
1296.703297
1284.981685
1274.725275
1265.934066
1258.608059
1252.747253
1245.421245
1240.29304
1237.362637
1235.897436
1234.432234
1235.164835
1235.164835
1236.630037
1238.095238
1240.29304
1240.29304
1241.025641
1241.758242
1241.758242
1243.223443
1243.956044
1243.956044
1243.956044
1241.758242
1241.025641
1240.29304
1238.095238
1237.362637
1237.362637
1237.362637
1239.56044
1238.095238
1235.897436
1232.967033
1227.838828
1224.908425
1219.047619
1213.186813
1206.593407
1202.930403
1205.128205
1208.058608
1213.919414
1223.443223
1235.897436
1254.212454
1280.586081
1314.285714
1358.974359
1417.582418
1484.249084
1559.70696
1641.025641
1723.076923
1802.197802
1873.260073
1934.798535
1987.545788
2029.304029
2062.271062
2084.249084
2098.168498
2107.692308
2108.424908
2101.098901
2089.377289
2073.260073
2054.212454
2032.234432
2005.128205
1972.893773
1941.391941
1907.692308
1873.260073
1841.025641
1810.25641
1783.150183
1759.70696
1738.461538
1720.879121
1709.89011
1701.831502
1697.435897
1698.168498
1698.901099
1699.6337
1701.831502
1701.098901
1698.901099
1695.238095
1687.179487
1678.388278
1666.666667
1653.479853
1640.29304
1626.373626
1611.721612
1596.336996
1577.289377
1558.241758
1538.461538
1520.14652
1505.494505
1493.040293
1480.586081
1467.399267
1453.479853
1439.56044
1422.710623
1408.058608
1390.47619
1372.893773
1358.241758
1342.857143
1329.67033
1318.681319
1308.424908
1300.3663
1293.040293
1287.912088
1284.249084
1281.318681
1279.85348
1279.120879
1278.388278
1277.655678
1275.457875
1271.062271
1260.07326
1250.549451
1239.56044
1231.501832
1225.641026
1227.106227
1229.304029
1232.234432
1235.164835
1236.630037
1236.630037
1233.699634
1231.501832
1227.106227
1223.443223
1218.315018
1215.384615
1211.721612
1208.058608
1206.593407
1206.593407
1204.395604
1200.732601
1198.534799
1197.069597
1195.604396
1194.871795
1194.139194
1192.673993
1191.208791
1189.010989
1186.813187
1184.615385
1183.882784
1182.417582
1181.684982
1178.754579
1176.556777
1174.358974
1175.824176
1180.21978
1191.941392
1210.989011
1241.025641
1281.318681
1334.065934
1397.802198
1472.527473
1553.846154
1638.827839
1723.076923
1801.465201
1869.59707
1929.67033
1980.21978
2020.512821
2045.421245
2059.340659
2063.736264
2059.340659
2049.084249
2032.234432
2011.721612
1988.278388
1961.172161
1933.333333
1904.761905
1874.725275
1843.223443
1810.989011
1778.021978
1748.717949
1721.611722
1698.901099
1680.586081
1670.32967
1662.271062
1663.736264
1666.666667
1675.457875
1686.446886
1694.505495
1700.3663
1701.098901
1701.831502
1697.435897
1689.377289
1678.388278
1663.736264
1646.153846
1624.908425
1600.732601
1574.358974
1548.717949
1520.879121
1494.505495
1467.399267
1442.490842
1417.582418
1395.604396
1375.824176
1359.70696
1345.054945
1334.798535
1323.809524
1313.553114
1306.227106
1299.6337
1291.575092
1286.446886
1280.586081
1276.923077
1274.725275
1276.923077
1276.923077
1275.457875
1272.527473
1269.59707
1263.736264
1261.538462
1260.07326
1258.608059
1257.875458
1257.875458
1253.479853
1249.81685
1248.351648
1247.619048
1246.886447
1246.886447
1243.956044
1240.29304
1234.432234
1230.03663
1224.908425
1219.78022
1210.989011
1200
1189.010989
1177.289377
1169.96337
1164.835165
1161.172161
1163.369963
1164.835165
1167.032967
1168.498168
1170.695971
1170.695971
1174.358974
1178.021978
1185.347985
1190.47619
1194.139194
1197.069597
1200
1202.930403
1205.128205
1212.454212
1224.175824
1241.758242
1267.399267
1304.761905
1353.846154
1414.652015
1484.981685
1564.835165
1649.084249
1734.065934
1813.919414
1887.179487
1951.648352
2003.663004
2041.025641
2067.399267
2082.051282
2087.912088
2082.783883
2073.992674
2058.608059
2039.56044
2017.582418
1996.336996
1970.695971
1939.92674
1906.959707
1871.794872
1835.897436
1799.267399
1763.369963
1726.739927
1694.505495
1665.201465
1642.490842
1626.373626
1616.117216
1613.186813
1616.117216
1624.175824
1635.897436
1651.282051
1663.003663
1673.260073
1681.318681
1682.051282
1679.120879
1669.59707
1658.608059
1642.490842
1623.443223
1601.465201
1575.824176
1548.717949
1517.948718
1485.714286
1453.479853
1422.710623
1398.534799
1375.824176
1354.578755
1334.798535
1316.483516
1300.3663
1287.179487
1276.923077
1267.399267
1260.805861
1252.747253
1248.351648
1243.223443
1240.29304
1241.758242
1242.490842
1243.223443
1241.758242
1238.827839
1235.164835
1230.03663
1228.571429
1231.501832
1235.164835
1237.362637
1240.29304
1241.025641
1242.490842
1242.490842
1243.223443
1241.758242
1241.025641
1241.025641
1239.56044
1235.897436
1231.501832
1224.908425
1217.582418
1210.25641
1200
1192.673993
1182.417582
1171.428571
1158.241758
1147.985348
1138.461538
1132.600733
1127.472527
1124.542125
1122.344322
1123.076923
1126.739927
1131.135531
1136.996337
1140.659341
1145.054945
1145.787546
1143.589744
1139.194139
1136.996337
1134.798535
1135.531136
1136.996337
1141.391941
1147.252747
1161.172161
1180.21978
1211.721612
1252.747253
1307.692308
1373.626374
1451.282051
1536.263736
1624.908425
1714.285714
1797.802198
1871.794872
1936.263736
1991.208791
2032.967033
2065.934066
2088.644689
2109.89011
2121.611722
2126.007326
2125.274725
2117.948718
2108.424908
2094.505495
2078.388278
2057.142857
2032.967033
2005.128205
1975.091575
1942.857143
1906.227106
1871.062271
1838.095238
1808.058608
1780.952381
1758.974359
1739.194139
1726.007326
1715.018315
1709.157509
1704.029304
1701.831502
1700.3663
1697.435897
1692.307692
1684.981685
1677.655678
1666.666667
1657.142857
1645.421245
1632.234432
1613.919414
1594.139194
1569.96337
1544.322344
1517.216117
1492.307692
1470.32967
1451.282051
1432.234432
1412.454212
1393.406593
1375.091575
1357.509158
1342.124542
1330.40293
1320.14652
1310.622711
1298.168498
1287.179487
1273.260073
1260.805861
1246.886447
1235.164835
1227.106227
1222.710623
1219.78022
1219.78022
1221.245421
1221.245421
1224.175824
1227.838828
1230.03663
1230.769231
1231.501832
1233.699634
1233.699634
1230.769231
1227.838828
1225.641026
1222.710623
1217.582418
1212.454212
1208.791209
1204.395604
1198.534799
1192.673993
1184.615385
1179.487179
1175.091575
1167.032967
1162.637363
1156.043956
1150.18315
1147.252747
1149.450549
1153.113553
1156.776557
1159.70696
1164.102564
1165.567766
1165.567766
1164.102564
1161.172161
1154.578755
1144.322344
1133.333333
1123.809524
1113.553114
1105.494505
1099.6337
1097.435897
1097.435897
1098.168498
1099.6337
1104.029304
1108.424908
1112.820513
1119.413919
1126.739927
1134.798535
1148.717949
1173.626374
1210.989011
1265.201465
1334.798535
1419.78022
1512.087912
1608.058608
1701.831502
1791.941392
1873.260073
1943.589744
2004.395604
2053.479853
2087.179487
2106.959707
2114.285714
2111.355311
2101.831502
2084.981685
2065.934066
2042.490842
2016.849817
1988.278388
1961.904762
1932.600733
1904.029304
1868.131868
1828.571429
1785.347985
1747.985348
1714.285714
1685.714286
1663.736264
1650.549451
1641.025641
1639.56044
1643.223443
1652.014652
1662.271062
1671.062271
1678.388278
1681.318681
1682.783883
1679.120879
1668.864469
1655.677656
1636.630037
1615.384615
1588.278388
1561.172161
1531.135531
1501.098901
1472.527473
1443.223443
1413.919414
1385.347985
1357.509158
1332.600733
1311.355311
1298.168498
1288.644689
1279.85348
1273.992674
1267.399267
1260.805861
1254.945055
1251.282051
1246.153846
1241.025641
1239.56044
1235.164835
1232.234432
1230.769231
1229.304029
1226.373626
1220.512821
1213.919414
1205.128205
1194.871795
1187.545788
1180.952381
1175.824176
1172.161172
1170.695971
1168.498168
1164.835165
1161.904762
1158.241758
1156.043956
1152.380952
1150.18315
1148.717949
1146.520147
1145.787546
1144.322344
1142.124542
1139.194139
1139.92674
1140.659341
1141.391941
1143.589744
1144.322344
1142.857143
1143.589744
1142.124542
1140.659341
1137.728938
1136.263736
1134.798535
1135.531136
1134.798535
1134.065934
1131.868132
1128.937729
1128.205128
1126.739927
1124.542125
1122.344322
1122.344322
1121.611722
1122.344322
1121.611722
1120.879121
1120.14652
1118.681319
1120.14652
1123.809524
1132.600733
1145.787546
1169.230769
1197.802198
1236.630037
1282.783883
1342.124542
1412.454212
1493.040293
1576.556777
1658.608059
1734.065934
1798.534799
1851.282051
1890.842491
1915.018315
1926.007326
1926.007326
1918.681319
1907.692308
1889.377289
1865.934066
1839.56044
1810.25641
1778.754579
1745.787546
1711.355311
1676.923077
1643.956044
1612.454212
1583.150183
1557.509158
1536.263736
1517.948718
1505.494505
1500.3663
1501.098901
1506.959707
1513.553114
1521.611722
1528.205128
1534.798535
1539.194139
1541.391941
1539.92674
1535.531136
1529.67033
1520.14652
1507.692308
1492.307692
1476.190476
1457.875458
1440.29304
1419.78022
1400
1378.021978
1356.776557
1333.333333
1313.553114
1294.505495
1277.655678
1262.271062
1251.282051
1239.56044
1230.03663
1219.78022
1211.721612
1205.128205
1200
1194.139194
1190.47619
1183.150183
1175.824176
1169.230769
1162.637363
1156.776557
1153.846154
1150.18315
1150.18315
1152.380952
1158.974359
1165.567766
1173.626374
1178.021978
1181.684982
1184.615385
1187.545788
1190.47619
1191.941392
1191.208791
1189.010989
1184.615385
1180.952381
1178.021978
1174.358974
1171.428571
1168.498168
1164.835165
1160.43956
1153.846154
1147.252747
1140.659341
1134.065934
1128.937729
1124.542125
1120.879121
1117.948718
1116.483516
1117.948718
1120.879121
1124.542125
1128.937729
1136.263736
1143.589744
1151.648352
1156.776557
1162.637363
1165.567766
1163.369963
1158.241758
1153.846154
1147.252747
1142.857143
1139.92674
1141.391941
1146.520147
1160.43956
1181.684982
1215.384615
1263.003663
1320.14652
1384.615385
1455.677656
1530.40293
1602.930403
1671.062271
1732.600733
1787.545788
1834.432234
1871.062271
1900.3663
1920.14652
1931.868132
1933.333333
1929.67033
1916.483516
1898.168498
1874.725275
1851.282051
1823.443223
1795.604396
1767.032967
1742.124542
1715.018315
1687.179487
1660.07326
1635.164835
1610.25641
1589.010989
1569.96337
1556.776557
1545.787546
1539.92674
1534.798535
1532.600733
1531.135531
1531.868132
1531.135531
1531.135531
1529.67033
1524.542125
1516.483516
1507.692308
1496.703297
1482.051282
1465.201465
1447.619048
1429.304029
1410.989011
1392.673993
1374.358974
1360.43956
1346.520147
1331.135531
1317.948718
1304.029304
1289.377289
1274.725275
1265.201465
1255.677656
1246.153846
1235.164835
1226.373626
1220.512821
1220.512821
1224.175824
1229.304029
1234.432234
1235.897436
1232.234432
1227.106227
1221.978022
1213.919414
1205.128205
1195.604396
1186.813187
1179.487179
1173.626374
1168.498168
1165.567766
1161.904762
1160.43956
1159.70696
1160.43956
1158.974359
1156.043956
1151.648352
1147.252747
1142.857143
1138.461538
1131.135531
1125.274725
1117.948718
1112.087912
1108.424908
1108.424908
1106.959707
1107.692308
1106.227106
1107.692308
1109.157509
1109.89011
1112.820513
1115.018315
1119.413919
1122.344322
1123.809524
1125.274725
1129.67033
1132.600733
1134.798535
1134.065934
1132.600733
1128.205128
1123.076923
1119.413919
1118.681319
1118.681319
1120.14652
1121.611722
1123.076923
1124.542125
1127.472527
1131.868132
1138.461538
1150.18315
1166.300366
1189.010989
1221.978022
1268.131868
1328.205128
1397.069597
1468.864469
1539.194139
1605.860806
1667.399267
1720.14652
1766.300366
1800.732601
1826.373626
1841.025641
1849.81685
1852.014652
1850.549451
1846.153846
1840.29304
1835.164835
1827.838828
1818.315018
1804.395604
1787.545788
1764.102564
1738.461538
1710.622711
1682.783883
1657.142857
1631.501832
1609.52381
1591.208791
1575.091575
1563.369963
1553.113553
1547.985348
1544.322344
1540.659341
1536.996337
1535.531136
1530.40293
1526.007326
1519.413919
1511.355311
1501.831502
1491.575092
1477.655678
1464.468864
1451.282051
1437.362637
1422.710623
1406.593407
1389.74359
1372.161172
1355.311355
1337.728938
1323.809524
1309.157509
1295.970696
1282.051282
1271.062271
1260.07326
1249.81685
1237.362637
1227.838828
1218.315018
1212.454212
1207.326007
1205.128205
1205.128205
1206.593407
1208.791209
1212.454212
1213.919414
1212.454212
1206.593407
1200
1191.208791
1182.417582
1174.358974
1170.695971
1167.032967
1164.102564
1161.172161
1161.904762
1162.637363
1163.369963
1163.369963
1165.567766
1167.765568
1169.230769
1170.695971
1171.428571
1172.893773
1172.161172
1172.161172
1172.893773
1175.091575
1176.556777
1175.091575
1173.626374
1173.626374
1171.428571
1167.765568
1164.102564
1158.974359
1151.648352
1147.252747
1142.857143
1140.659341
1137.728938
1139.194139
1139.194139
1139.194139
1136.263736
1134.798535
1131.135531
1131.868132
1131.135531
1131.135531
1131.135531
1132.600733
1132.600733
1131.135531
1129.67033
1130.40293
1129.67033
1130.40293
1132.600733
1139.194139
1150.915751
1170.695971
1202.930403
1243.956044
1295.970696
1354.578755
1418.315018
1484.981685
1549.450549
1608.791209
1662.271062
1706.959707
1742.857143
1769.230769
1789.74359
1804.395604
1814.652015
1816.117216
1812.454212
1802.930403
1789.74359
1770.695971
1747.985348
1722.344322
1696.703297
1666.666667
1632.234432
1597.802198
1563.369963
1534.798535
1507.692308
1488.644689
1473.260073
1463.003663
1456.410256
1454.945055
1456.410256
1458.608059
1463.003663
1467.399267
1471.794872
1473.992674
1473.992674
1471.794872
1466.666667
1458.608059
1451.282051
1441.758242
1430.03663
1417.582418
1405.128205
1393.406593
1379.487179
1368.498168
1358.974359
1350.18315
1339.92674
1329.67033
1321.611722
1311.355311
1302.564103
1292.307692
1281.318681
1272.527473
1263.003663
1256.410256
1245.421245
1233.699634
1220.512821
1208.058608
1197.802198
1189.74359
1185.347985
1186.813187
1188.278388
1191.208791
1193.406593
1197.069597
1200.732601
1205.128205
1206.593407
1210.989011
1214.652015
1217.582418
1216.117216
1215.384615
1212.454212
1208.791209
1204.395604
1202.197802
1200
1196.336996
1193.406593
1191.941392
1194.139194
1198.534799
1200.732601
1202.930403
1205.128205
1203.663004
1202.197802
1197.069597
1191.941392
1185.347985
1178.754579
1171.428571
1167.765568
1164.102564
1161.172161
1161.172161
1163.369963
1164.835165
1164.835165
1163.369963
1163.369963
1162.637363
1161.172161
1158.974359
1156.776557
1157.509158
1158.974359
1165.567766
1175.824176
1189.74359
1205.860806
1227.106227
1254.212454
1289.377289
1332.600733
1381.684982
1434.432234
1491.575092
1547.985348
1602.930403
1652.747253
1695.970696
1731.868132
1758.241758
1777.289377
1786.080586
1789.010989
1784.615385
1777.289377
1767.032967
1756.043956
1740.659341
1726.739927
1708.424908
1687.912088
1664.468864
1639.56044
1612.454212
1585.347985
1560.43956
1541.391941
1523.809524
1511.355311
1501.098901
1491.575092
1482.051282
1474.725275
1468.131868
1468.131868
1468.864469
1471.062271
1472.527473
1476.923077
1481.318681
1484.981685
1484.981685
1484.981685
1479.120879
1470.32967
1457.142857
1441.025641
1424.175824
1402.930403
1382.417582
1361.172161
1342.857143
1326.007326
1312.820513
1300.3663
1292.307692
1282.783883
1276.923077
1270.32967
1265.201465
1258.608059
1251.282051
1241.025641
1233.699634
1227.838828
1222.710623
1216.117216
1210.989011
1205.860806
1201.465201
1197.802198
1195.604396
1196.336996
1195.604396
1197.802198
1199.267399
1202.930403
1205.860806
1210.25641
1215.384615
1219.78022
1220.512821
1221.245421
1219.78022
1218.315018
1216.849817
1214.652015
1212.454212
1210.25641
1210.989011
1210.989011
1210.989011
1213.919414
1213.919414
1214.652015
1214.652015
1216.849817
1216.117216
1216.849817
1216.117216
1216.849817
1215.384615
1212.454212
1207.326007
1197.802198
1186.813187
1177.289377
1167.032967
1158.241758
1153.113553
1148.717949
1146.520147
1145.054945
1144.322344
1143.589744
1146.520147
1150.915751
1156.776557
1164.835165
1176.556777
1194.139194
1221.245421
1257.142857
1307.692308
1367.032967
1438.827839
1515.750916
1593.406593
1670.32967
1743.589744
1812.454212
1867.399267
1910.622711
1942.124542
1961.904762
1969.96337
1972.893773
1969.230769
1965.567766
1957.509158
1951.648352
1941.391941
1931.135531
1920.14652
1906.959707
1891.575092
1869.59707
1846.886447
1822.710623
1797.069597
1774.358974
1756.043956
1741.391941
1728.205128
1716.483516
1704.761905
1697.435897
1690.10989
1687.912088
1684.981685
1682.783883
1679.120879
1675.457875
1670.32967
1663.003663
1650.549451
1637.362637
1619.78022
1603.663004
1584.615385
1565.567766
1545.054945
1525.274725
1506.227106
1488.644689
1472.527473
1454.945055
1441.025641
1427.106227
1411.721612
1397.069597
1381.684982
1370.695971
1357.509158
1345.054945
1333.333333
1322.344322
1312.820513
1303.296703
1293.040293
1287.179487
1282.051282
1279.120879
1278.388278
1276.923077
1277.655678
1273.992674
1268.864469
1262.271062
1255.677656
1248.351648
1243.223443
1238.827839
1235.897436
1235.164835
1232.967033
1232.234432
1231.501832
1232.967033
1234.432234
1235.897436
1233.699634
1232.234432
1228.571429
1225.641026
1220.512821
1219.78022
1218.315018
1219.047619
1219.047619
1221.978022
1222.710623
1222.710623
1219.78022
1216.849817
1209.52381
1202.197802
1195.604396
1193.406593
1190.47619
1186.080586
1183.882784
1183.150183
1180.952381
1178.021978
1171.428571
1162.637363
1155.311355
1148.717949
1145.054945
1142.857143
1142.124542
1144.322344
1149.450549
1157.509158
1171.428571
1189.74359
1216.117216
1252.747253
1298.901099
1357.509158
1425.641026
1500.3663
1580.952381
1660.07326
1737.728938
1808.791209
1874.725275
1930.40293
1972.893773
2005.860806
2027.838828
2043.223443
2048.351648
2049.81685
2044.688645
2037.362637
2025.641026
2010.25641
1991.208791
1972.161172
1949.450549
1927.472527
1900.3663
1871.062271
1839.56044
1806.593407
1774.358974
1745.054945
1722.344322
1704.761905
1693.772894
1685.714286
1685.714286
1687.912088
1690.10989
1690.842491
1693.040293
1698.168498
1701.831502
1702.564103
1700.3663
1696.703297
1688.644689
1676.923077
1659.340659
1635.164835
1604.395604
1570.695971
1534.798535
1500.3663
1469.59707
1441.025641
1417.582418
1397.069597
1378.754579
1364.835165
1352.380952
1343.589744
1335.531136
1328.937729
1320.879121
1312.820513
1303.296703
1294.505495
1287.912088
1281.318681
1276.923077
1273.260073
1271.062271
1271.794872
1272.527473
1273.992674
1272.527473
1274.725275
1273.992674
1273.992674
1271.062271
1269.59707
1267.399267
1265.934066
1265.201465
1265.934066
1264.468864
1262.271062
1257.142857
1252.014652
1243.956044
1235.164835
1227.838828
1223.443223
1218.315018
1213.186813
1208.058608
1203.663004
1200
1198.534799
1196.336996
1193.406593
1191.208791
1188.278388
1184.615385
1183.150183
1183.882784
1187.545788
1191.941392
1196.336996
1198.534799
1202.197802
1201.465201
1199.267399
1196.336996
1193.406593
1190.47619
1187.545788
1186.813187
1187.545788
1191.941392
1200
1215.384615
1241.025641
1279.85348
1331.868132
1396.336996
1469.59707
1550.915751
1632.967033
1713.553114
1788.278388
1855.677656
1912.087912
1956.043956
1989.010989
2010.989011
2020.512821
2019.78022
2012.454212
1998.534799
1979.487179
1954.578755
1926.739927
1896.703297
1866.666667
1832.967033
1797.069597
1761.172161
1726.007326
1693.040293
1663.003663
1641.025641
1622.710623
1610.25641
1603.663004
1601.465201
1605.128205
1608.791209
1614.652015
1619.047619
1626.373626
1633.699634
1639.56044
1643.956044
1645.421245
1643.223443
1634.432234
1621.978022
1604.395604
1585.347985
1563.369963
1540.659341
1516.483516
1493.772894
1471.062271
1448.351648
1426.373626
1407.326007
1387.545788
1369.230769
1353.113553
1338.461538
1326.007326
1312.820513
1301.098901
1290.10989
1283.516484
1275.457875
1271.062271
1263.736264
1260.07326
1254.212454
1249.81685
1246.153846
1244.688645
1243.956044
1243.223443
1243.956044
1246.886447
1249.81685
1252.747253
1254.212454
1254.945055
1253.479853
1249.81685
1245.421245
1241.025641
1235.897436
1231.501832
1227.106227
1220.512821
1214.652015
1208.058608
1202.197802
1195.604396
1192.673993
1189.010989
1186.080586
1182.417582
1180.952381
1179.487179
1178.754579
1178.021978
1178.021978
1176.556777
1173.626374
1170.695971
1172.893773
1175.091575
1176.556777
1174.358974
1172.161172
1168.498168
1168.498168
1169.96337
1175.824176
1180.952381
1184.615385
1189.74359
1198.534799
1211.721612
1234.432234
1270.32967
1319.413919
1382.417582
1454.945055
1538.461538
1626.373626
1720.14652
1810.25641
1895.238095
1972.161172
2038.827839
2093.772894
2134.798535
2165.567766
2182.417582
2191.941392
2190.47619
2183.882784
2172.893773
2160.43956
2143.589744
2123.809524
2100.3663
2073.992674
2043.956044
2011.721612
1975.824176
1937.728938
1899.6337
1862.271062
1828.571429
1800.732601
1780.952381
1764.835165
1756.043956
1750.915751
1749.450549
1752.380952
1756.043956
1760.43956
1761.172161
1758.974359
1750.915751
1742.857143
1732.600733
1719.413919
1703.296703
1685.714286
1665.201465
1641.758242
1617.582418
1591.941392
1566.300366
1538.461538
1511.355311
1484.249084
1461.538462
1438.095238
1419.78022
1402.197802
1386.813187
1372.161172
1359.70696
1346.520147
1334.798535
1320.14652
1305.494505
1291.575092
1281.318681
1271.062271
1262.271062
1254.212454
1249.81685
1246.886447
1246.153846
1246.153846
1248.351648
1252.747253
1258.608059
1261.538462
1265.201465
1268.864469
1268.864469
1268.131868
1264.468864
1262.271062
1258.608059
1254.945055
1249.81685
1243.956044
1237.362637
1226.373626
1214.652015
1204.395604
1194.139194
1184.615385
1177.289377
1172.161172
1167.032967
1164.102564
1161.172161
1159.70696
1156.776557
1155.311355
1153.113553
1151.648352
1150.18315
1150.18315
1149.450549
1152.380952
1153.846154
1151.648352
1147.985348
1142.857143
1139.194139
1136.263736
1134.065934
1133.333333
1130.40293
1128.937729
1130.40293
1136.996337
1153.846154
1179.487179
1219.047619
1273.992674
1343.589744
1425.641026
1518.681319
1619.047619
1720.14652
1816.849817
1904.029304
1978.754579
2041.758242
2090.842491
2128.937729
2156.043956
2169.230769
2172.893773
2168.498168
2157.509158
2143.589744
2126.007326
2108.424908
2090.842491
2069.59707
2046.153846
2018.315018
1987.545788
1955.311355
1922.344322
1890.842491
1860.07326
1835.164835
1811.721612
1791.941392
1775.824176
1766.300366
1758.974359
1755.311355
1752.380952
1747.985348
1743.589744
1737.728938
1730.40293
1720.14652
1707.692308
1692.307692
1673.992674
1653.479853
1630.769231
1606.593407
1580.21978
1554.578755
1527.472527
1499.6337
1473.260073
1449.084249
1427.106227
1406.593407
1386.813187
1369.230769
1352.380952
1339.194139
1326.739927
1316.483516
1307.692308
1298.901099
1290.842491
1284.981685
1277.655678
1271.794872
1263.003663
1254.945055
1243.956044
1231.501832
1217.582418
1205.128205
1195.604396
1187.545788
1183.150183
1180.952381
1178.754579
1177.289377
1179.487179
1181.684982
1185.347985
1189.74359
1193.406593
1196.336996
1198.534799
1197.802198
1197.802198
1196.336996
1194.871795
1191.941392
1187.545788
1180.952381
1176.556777
1169.96337
1164.102564
1158.241758
1151.648352
1147.985348
1141.391941
1136.996337
1131.868132
1128.937729
1126.739927
1126.007326
1123.809524
1120.879121
1117.948718
1112.087912
1103.296703
1092.307692
1084.981685
1079.85348
1077.655678
1076.190476
1073.260073
1072.527473
1074.725275
1077.655678
1083.516484
1091.575092
1104.029304
1121.611722
1148.717949
1188.278388
1240.29304
1306.227106
1382.417582
1469.59707
1558.241758
1648.351648
1733.333333
1808.791209
1872.527473
1924.542125
1965.567766
1991.208791
2005.128205
2008.058608
2004.395604
1993.406593
1976.556777
1956.043956
1931.868132
1906.227106
1876.190476
1841.758242
1805.860806
1767.765568
1730.40293
1693.772894
1657.142857
1624.908425
1598.534799
1580.21978
1567.765568
1560.43956
1557.509158
1560.43956
1565.567766
1574.358974
1583.150183
1591.208791
1597.069597
1602.197802
1606.593407
1607.326007
1602.930403
1595.604396
1582.417582
1565.567766
1547.252747
1526.007326
1504.761905
1479.85348
1454.945055
1430.03663
1404.395604
1378.754579
1356.043956
1334.065934
1312.820513
1293.772894
1276.923077
1261.538462
1246.153846
1236.630037
1230.03663
1227.106227
1224.908425
1224.175824
1224.175824
1222.710623
1219.78022
1213.186813
1204.395604
1195.604396
1186.080586
1177.289377
1169.96337
1164.102564
1159.70696
1156.776557
1156.043956
1157.509158
1159.70696
1161.904762
1161.172161
1159.70696
1156.043956
1151.648352
1148.717949
1148.717949
1152.380952
1157.509158
1161.904762
1166.300366
1166.300366
1165.567766
1161.904762
1158.974359
1153.846154
1145.054945
1133.333333
1123.076923
1114.285714
1106.227106
1099.6337
1093.772894
1087.912088
1082.051282
1078.388278
1074.725275
1071.794872
1068.131868
1065.934066
1065.201465
1068.131868
1073.260073
1079.120879
1090.10989
1104.761905
1126.739927
1157.509158
1199.267399
1252.014652
1315.750916
1391.208791
1471.794872
1555.311355
1640.29304
1720.879121
1797.069597
1860.07326
1912.087912
1950.18315
1978.021978
1994.871795
2001.465201
1999.267399
1988.278388
1969.96337
1950.18315
1925.274725
1900.3663
1872.527473
1843.223443
1813.186813
1780.952381
1745.054945
1707.692308
1668.864469
1634.432234
1602.197802
1574.358974
1553.113553
1537.728938
1529.67033
1524.542125
1524.542125
1526.007326
1530.40293
1534.065934
1536.996337
1539.194139
1537.728938
1536.996337
1531.135531
1523.809524
1511.355311
1496.703297
1478.388278
1456.410256
1435.164835
1414.652015
1398.534799
1383.150183
1369.96337
1356.043956
1343.589744
1328.937729
1313.553114
1298.901099
1284.981685
1273.992674
1263.003663
1254.945055
1245.421245
1239.56044
1232.967033
1225.641026
1216.849817
1206.593407
1197.802198
1189.74359
1183.882784
1179.487179
1174.358974
1172.161172
1169.230769
1168.498168
1165.567766
1164.835165
1162.637363
1161.172161
1160.43956
1158.974359
1158.241758
1156.776557
1153.846154
1150.915751
1149.450549
1147.252747
1146.520147
1145.054945
1145.054945
1142.857143
1134.065934
1126.007326
1115.750916
1107.692308
1099.6337
1094.505495
1094.505495
1094.505495
1098.901099
1101.831502
1106.227106
1112.087912
1115.018315
1114.285714
1109.89011
1105.494505
1098.901099
1093.040293
1087.179487
1083.516484
1082.783883
1085.714286
1091.575092
1095.970696
1098.901099
1099.6337
1100.3663
1101.098901
1101.098901
1102.564103
1105.494505
1112.087912
1124.542125
1142.124542
1166.300366
1197.802198
1238.095238
1288.644689
1350.915751
1419.78022
1494.505495
1569.96337
1638.827839
1703.296703
1758.241758
1803.663004
1837.362637
1860.805861
1876.923077
1887.179487
1890.842491
1889.377289
1882.051282
1872.527473
1861.538462
1848.351648
1832.234432
1815.384615
1794.871795
1771.428571
1743.589744
1714.285714
1682.783883
1652.747253
1626.373626
1603.663004
1586.080586
1573.626374
1565.567766
1561.172161
1558.974359
1558.974359
1558.974359
1563.369963
1566.300366
1567.032967
1563.369963
1558.974359
1550.18315
1538.461538
1524.542125
1507.692308
1489.377289
1471.794872
1450.549451
1428.571429
1404.395604
1380.952381
1358.241758
1338.461538
1322.344322
1306.959707
1293.772894
1281.318681
1271.794872
1263.003663
1255.677656
1250.549451
1243.956044
1237.362637
1227.106227
1216.849817
1205.128205
1194.871795
1185.347985
1178.021978
1173.626374
1170.695971
1171.428571
1175.091575
1180.952381
1186.813187
1191.941392
1196.336996
1200.732601
1205.860806
1209.52381
1211.721612
1210.989011
1207.326007
1200
1191.941392
1186.080586
1179.487179
1175.091575
1169.230769
1161.172161
1153.113553
1142.124542
1131.135531
1120.14652
1111.355311
1101.831502
1096.703297
1093.772894
1091.575092
1091.575092
1091.575092
1093.040293
1095.238095
1095.970696
1095.970696
1094.505495
1093.040293
1090.842491
1089.377289
1088.644689
1089.377289
1087.912088
1088.644689
1090.10989
1091.575092
1092.307692
1091.575092
1091.575092
1091.575092
1094.505495
1096.703297
1099.6337
1104.029304
1107.692308
1112.820513
1112.820513
1113.553114
1112.087912
1111.355311
1112.087912
1114.285714
1123.076923
1139.194139
1161.172161
1191.941392
1233.699634
1284.249084
1344.322344
1407.326007
1472.527473
1534.798535
1587.545788
1632.234432
1666.666667
1690.10989
1708.424908
1720.14652
1723.809524
1725.274725
1721.611722
1718.681319
1715.018315
1709.157509
1701.098901
1695.238095
1687.179487
1678.388278
1667.399267
1652.747253
1634.432234
1613.919414
1589.74359
1567.032967
1543.589744
1523.076923
1507.692308
1494.505495
1487.912088
1488.644689
1492.307692
1497.435897
1499.6337
1499.6337
1500.3663
1496.703297
1492.307692
1485.714286
1473.992674
1458.608059
1439.56044
1419.78022
1396.336996
1374.358974
1354.578755
1333.333333
1315.750916
1298.168498
1283.516484
1268.131868
1254.212454
1241.025641
1230.03663
1219.047619
1210.25641
1201.465201
1193.406593
1189.010989
1185.347985
1182.417582
1179.487179
1178.021978
1177.289377
1180.21978
1185.347985
1189.010989
1191.208791
1189.74359
1186.080586
1180.21978
1174.358974
1169.96337
1167.032967
1167.765568
1169.96337
1169.96337
1169.96337
1169.96337
1169.96337
1167.032967
1161.904762
1157.509158
1153.113553
1150.18315
1145.054945
1141.391941
1139.194139
1136.263736
1134.798535
1131.135531
1130.40293
1129.67033
1128.937729
1128.937729
1128.205128
1128.205128
1128.205128
1127.472527
1127.472527
1128.937729
1134.798535
1143.589744
1153.846154
1161.904762
1168.498168
1169.96337
1171.428571
1171.428571
1170.695971
1166.300366
1161.904762
1158.241758
1154.578755
1150.18315
1147.252747
1146.520147
1147.985348
1148.717949
1147.985348
1146.520147
1145.787546
1143.589744
1145.054945
1145.787546
1151.648352
1157.509158
1165.567766
1177.289377
1194.871795
1220.512821
1253.479853
1292.307692
1336.263736
1384.615385
1432.967033
1480.586081
1526.007326
1562.637363
1594.139194
1616.117216
1632.967033
1641.025641
1643.956044
1642.490842
1636.630037
1626.373626
1611.721612
1592.673993
1575.091575
1555.311355
1536.996337
1518.681319
1501.098901
1483.516484
1464.468864
1446.153846
1430.03663
1415.384615
1407.326007
1402.197802
1400.732601
1401.465201
1403.663004
1405.860806
1405.860806
1402.197802
1394.871795
1386.813187
1378.754579
1372.161172
1368.498168
1363.369963
1360.43956
1354.578755
1348.717949
1341.391941
1332.600733
1323.076923
1311.355311
1302.564103
1290.842491
1279.120879
1269.59707
1258.608059
1251.282051
1243.956044
1238.095238
1234.432234
1229.304029
1224.908425
1220.512821
1216.117216
1212.454212
1207.326007
1203.663004
1200
1197.802198
1194.871795
1193.406593
1192.673993
1192.673993
1191.941392
1189.010989
1186.813187
1183.150183
1178.754579
1175.091575
1174.358974
1172.161172
1169.230769
1167.765568
1164.835165
1164.835165
1164.835165
1164.835165
1165.567766
1169.230769
1175.091575
1179.487179
1182.417582
1184.615385
1185.347985
1186.813187
1186.813187
1188.278388
1186.813187
1189.74359
1193.406593
1197.069597
1199.267399
1199.267399
1199.267399
1197.802198
1193.406593
1187.545788
1180.952381
1175.824176
1173.626374
1173.626374
1173.626374
1173.626374
1172.893773
1171.428571
1169.96337
1170.695971
1170.695971
1174.358974
1176.556777
1178.021978
1180.952381
1182.417582
1183.150183
1182.417582
1180.952381
1180.952381
1182.417582
1189.74359
1200.732601
1216.117216
1238.095238
1265.201465
1301.831502
1343.589744
1390.47619
1438.827839
1486.446886
1531.135531
1572.161172
1608.791209
1636.630037
1659.340659
1674.725275
1687.179487
1693.040293
1698.168498
1703.296703
1706.227106
1706.959707
1705.494505
1702.564103
1694.505495
1679.85348
1661.538462
1638.095238
1612.454212
1586.813187
1564.102564
1542.124542
1523.076923
1508.424908
1495.970696
1486.446886
1478.388278
1471.794872
1466.666667
1460.805861
1453.479853
1446.153846
1435.897436
1426.373626
1417.582418
1410.25641
1405.128205
1399.267399
1392.673993
1383.150183
1375.824176
1367.032967
1359.70696
1351.648352
1345.054945
1342.857143
1339.92674
1336.996337
1331.868132
1327.472527
1323.076923
1319.413919
1314.285714
1309.157509
1304.761905
1300.3663
1295.970696
1292.307692
1289.377289
1284.249084
1279.85348
1274.725275
1269.59707
1263.736264
1257.142857
1249.81685
1241.758242
1235.164835
1231.501832
1230.03663
1229.304029
1228.571429
1227.106227
1225.641026
1226.373626
1227.106227
1227.106227
1227.106227
1227.838828
1225.641026
1223.443223
1216.849817
1205.860806
1197.802198
1188.278388
1181.684982
1175.824176
1171.428571
1168.498168
1166.300366
1165.567766
1164.835165
1169.230769
1174.358974
1180.952381
1185.347985
1186.813187
1188.278388
1191.208791
1197.802198
1205.860806
1213.919414
1221.245421
1224.908425
1225.641026
1224.908425
1224.175824
1221.978022
1219.047619
1215.384615
1213.186813
1210.989011
1210.25641
1210.989011
1213.186813
1215.384615
1219.047619
1222.710623
1226.373626
1231.501832
1232.967033
1232.234432
1231.501832
1229.304029
1227.838828
1224.908425
1224.908425
1228.571429
1235.164835
1249.084249
1268.131868
1291.575092
1321.611722
1355.311355
1394.139194
1434.432234
1477.655678
1520.879121
1561.904762
1599.267399
1630.769231
1657.142857
1679.85348
1695.238095
1704.029304
1705.494505
1701.098901
1693.040293
1680.586081
1668.864469
1654.945055
1640.29304
1624.175824
1605.128205
1589.010989
1572.893773
1558.241758
1543.589744
1534.065934
1523.076923
1516.483516
1513.553114
1512.087912
1508.424908
1506.227106
1505.494505
1507.692308
1508.424908
1509.89011
1509.89011
1508.424908
1507.692308
1506.227106
1502.564103
1497.435897
1489.377289
1479.85348
1467.399267
1452.747253
1436.630037
1419.047619
1401.465201
1386.813187
1372.893773
1361.904762
1352.380952
1344.322344
1336.263736
1327.472527
1321.611722
1316.483516
1310.622711
1306.227106
1301.098901
1297.435897
1295.970696
1291.575092
1287.179487
1283.516484
1279.120879
1276.190476
1273.992674
1272.527473
1270.32967
1266.666667
1261.538462
1259.340659
1254.945055
1253.479853
1249.81685
1246.886447
1243.223443
1235.164835
1225.641026
1219.78022
1213.919414
1210.989011
1209.52381
1211.721612
1219.78022
1230.03663
1238.827839
1245.421245
1251.282051
1252.747253
1251.282051
1247.619048
1241.758242
1234.432234
1224.908425
1218.315018
1211.721612
1204.395604
1201.465201
1199.267399
1196.336996
1194.139194
1193.406593
1194.139194
1196.336996
1199.267399
1201.465201
1205.860806
1209.52381
1213.919414
1216.849817
1219.047619
1221.978022
1224.175824
1225.641026
1229.304029
1230.769231
1230.769231
1230.769231
1230.769231
1231.501832
1230.769231
1228.571429
1226.373626
1223.443223
1222.710623
1224.175824
1227.838828
1233.699634
1241.758242
1252.014652
1266.666667
1283.516484
1304.761905
1328.205128
1353.846154
1383.150183
1412.454212
1444.688645
1479.120879
1517.216117
1555.311355
1592.673993
1627.838828
1653.479853
1673.260073
1684.249084
1689.377289
1690.842491
1684.981685
1673.992674
1661.538462
1646.153846
1628.571429
1608.058608
1588.278388
1567.765568
1546.520147
1526.739927
1509.157509
1493.040293
1479.85348
1471.794872
1466.666667
1464.468864
1463.736264
1463.736264
1468.864469
1475.457875
1479.120879
1480.586081
1481.318681
1479.120879
1479.85348
1479.85348
1479.120879
1476.190476
1471.062271
1467.399267
1465.201465
1463.003663
1461.538462
1458.608059
1452.014652
1443.223443
1432.234432
1420.512821
1408.791209
1396.336996
1383.882784
1367.765568
1353.113553
1337.728938
1320.14652
1301.831502
1284.981685
1268.864469
1257.142857
1249.81685
1243.956044
1240.29304
1238.827839
1238.095238
1240.29304
1243.956044
1247.619048
1252.014652
1256.410256
1259.340659
1261.538462
1265.201465
1265.934066
1264.468864
1263.003663
1261.538462
1260.07326
1257.875458
1256.410256
1253.479853
1253.479853
1254.945055
1254.945055
1257.142857
1258.608059
1258.608059
1257.875458
1254.945055
1254.212454
1252.014652
1249.81685
1247.619048
1246.153846
1245.421245
1243.956044
1241.758242
1239.56044
1235.897436
1232.967033
1230.769231
1227.838828
1226.373626
1222.710623
1222.710623
1228.571429
1236.630037
1246.153846
1254.212454
1261.538462
1265.934066
1268.131868
1266.666667
1265.934066
1263.736264
1260.07326
1256.410256
1251.282051
1246.153846
1241.758242
1240.29304
1244.688645
1254.212454
1269.59707
1293.772894
1324.542125
1364.835165
1409.52381
1456.410256
1506.227106
1553.846154
1599.267399
1641.025641
1678.388278
1710.622711
1739.92674
1762.637363
1776.556777
1785.347985
1787.545788
1783.150183
1774.358974
1761.904762
1746.520147
1730.40293
1710.622711
1691.575092
1669.59707
1646.886447
1626.373626
1607.326007
1591.208791
1578.021978
1571.428571
1567.765568
1567.032967
1567.032967
1567.765568
1568.498168
1570.695971
1573.626374
1577.289377
1578.754579
1580.21978
1579.487179
1572.893773
1564.835165
1553.846154
1542.857143
1531.868132
1520.14652
1507.692308
1495.970696
1479.120879
1461.538462
1443.956044
1425.641026
1409.52381
1393.406593
1381.684982
1374.358974
1369.230769
1361.904762
1356.043956
1350.18315
1343.589744
1336.996337
1328.205128
1318.681319
1307.692308
1295.238095
1287.179487
1282.783883
1280.586081
1279.85348
1280.586081
1280.586081
1282.051282
1279.120879
1276.923077
1275.457875
1275.457875
1275.457875
1274.725275
1271.062271
1265.201465
1260.07326
1254.945055
1249.81685
1246.886447
1244.688645
1246.153846
1251.282051
1257.875458
1263.003663
1266.666667
1266.666667
1262.271062
1255.677656
1250.549451
1246.153846
1245.421245
1243.956044
1240.29304
1240.29304
1242.490842
1243.223443
1242.490842
1240.29304
1236.630037
1234.432234
1233.699634
1235.164835
1239.56044
1242.490842
1245.421245
1246.886447
1247.619048
1249.084249
1249.084249
1246.886447
1242.490842
1237.362637
1231.501832
1225.641026
1224.175824
1224.175824
1222.710623
1224.175824
1227.106227
1232.967033
1241.758242
1256.410256
1278.388278
1305.494505
1340.659341
1383.882784
1433.699634
1490.10989
1549.450549
1610.989011
1670.32967
1727.472527
1780.21978
1826.373626
1863.736264
1894.505495
1917.216117
1931.868132
1939.92674
1942.124542
1937.728938
1931.868132
1923.076923
1907.692308
1889.377289
1868.864469
1846.153846
1823.443223
1799.267399
1773.626374
1750.18315
1728.205128
1710.622711
1695.970696
1684.981685
1678.388278
1674.725275
1675.457875
1678.388278
1682.783883
1687.912088
1693.040293
1693.772894
1690.842491
1687.179487
1679.120879
1671.062271
1659.340659
1644.688645
1627.838828
1611.721612
1593.406593
1575.091575
1556.043956
1536.263736
1513.553114
1493.040293
1471.062271
1449.81685
1429.304029
1411.721612
1395.604396
1378.754579
1363.369963
1352.380952
1342.124542
1333.333333
1326.739927
1321.611722
1320.879121
1320.14652
1314.285714
1307.692308
1302.564103
1295.238095
1289.377289
1285.714286
1279.85348
1275.457875
1271.794872
1269.59707
1266.666667
1265.934066
1265.201465
1265.201465
1263.003663
1260.805861
1257.875458
1254.945055
1252.747253
1251.282051
1249.81685
1251.282051
1252.014652
1254.212454
1256.410256
1256.410256
1256.410256
1254.212454
1252.014652
1246.153846
1243.223443
1239.56044
1237.362637
1234.432234
1232.234432
1230.769231
1232.967033
1234.432234
1236.630037
1238.095238
1240.29304
1242.490842
1244.688645
1246.886447
1249.81685
1253.479853
1257.875458
1261.538462
1265.934066
1269.59707
1271.062271
1271.794872
1270.32967
1268.864469
1265.201465
1263.736264
1262.271062
1258.608059
1253.479853
1248.351648
1240.29304
1234.432234
1232.234432
1234.432234
1238.095238
1245.421245
1254.945055
1272.527473
1295.238095
1328.205128
1370.695971
1421.978022
1482.051282
1549.450549
1617.582418
1685.714286
1749.450549
1807.326007
1859.340659
1902.564103
1934.798535
1957.509158
1972.161172
1976.556777
1977.289377
1972.161172
1959.70696
1944.322344
1922.344322
1895.970696
1868.131868
1837.362637
1803.663004
1769.96337
1736.996337
1709.157509
1684.249084
1665.934066
1654.945055
1648.351648
1646.153846
1648.351648
1651.282051
1656.410256
1662.271062
1668.864469
1673.260073
1676.190476
1676.190476
1672.527473
1667.399267
1659.340659
1648.351648
1632.967033
1613.186813
1592.673993
1572.893773
1549.450549
1526.739927
1505.494505
1485.714286
1467.399267
1449.084249
1430.769231
1413.919414
1400
1387.545788
1374.358974
1359.70696
1347.252747
1334.798535
1323.809524
1312.087912
1304.029304
1295.970696
1287.179487
1279.85348
1273.992674
1271.062271
1267.399267
1264.468864
1265.201465
1268.864469
1275.457875
1282.051282
1287.912088
1291.575092
1290.842491
1282.783883
1274.725275
1264.468864
1254.212454
1245.421245
1241.025641
1237.362637
1233.699634
1232.234432
1231.501832
1231.501832
1231.501832
1231.501832
1231.501832
1227.106227
1221.978022
1219.78022
1219.78022
1222.710623
1227.106227
1235.164835
1241.758242
1249.084249
1256.410256
1263.736264
1268.131868
1271.062271
1271.794872
1271.062271
1270.32967
1266.666667
1261.538462
1254.212454
1247.619048
1243.223443
1242.490842
1241.758242
1241.758242
1241.025641
1241.025641
1241.025641
1241.758242
1241.758242
1241.025641
1238.095238
1234.432234
1227.838828
1219.047619
1212.454212
1211.721612
1213.919414
1221.978022
1234.432234
1252.014652
1272.527473
1300.3663
1336.996337
1380.21978
1429.304029
1484.249084
1542.857143
1602.197802
1659.340659
1709.89011
1750.18315
1781.684982
1805.860806
1821.245421
1830.769231
1835.164835
1833.699634
1828.571429
1819.047619
1805.128205
1783.882784
1759.70696
1732.600733
1704.761905
1676.190476
1648.351648
1621.245421
1596.336996
1575.091575
1557.509158
1546.520147
1539.92674
1536.996337
1537.728938
1540.659341
1546.520147
1556.776557
1565.567766
1573.626374
1580.952381
1584.615385
1584.615385
1579.487179
1574.358974
1567.765568
1558.974359
1547.252747
1537.728938
1526.739927
1513.553114
1495.970696
1477.655678
1459.340659
1440.29304
1421.245421
1400
1378.754579
1358.974359
1339.92674
1320.14652
1304.029304
1291.575092
1281.318681
1279.120879
1278.388278
1280.586081
1282.783883
1287.179487
1289.377289
1292.307692
1293.772894
1294.505495
1293.040293
1289.377289
1284.981685
1279.120879
1275.457875
1270.32967
1266.666667
1264.468864
1262.271062
1263.003663
1262.271062
1260.07326
1257.875458
1255.677656
1253.479853
1251.282051
1249.81685
1247.619048
1243.223443
1234.432234
1226.373626
1216.849817
1209.52381
1201.465201
1197.069597
1193.406593
1191.941392
1191.208791
1193.406593
1195.604396
1199.267399
1203.663004
1211.721612
1221.978022
1231.501832
1238.095238
1243.956044
1247.619048
1249.81685
1251.282051
1250.549451
1246.153846
1239.56044
1229.304029
1217.582418
1208.791209
1202.930403
1198.534799
1195.604396
1195.604396
1202.197802
1209.52381
1218.315018
1230.769231
1250.549451
1281.318681
1319.413919
1365.567766
1419.78022
1479.85348
1543.589744
1608.791209
1672.527473
1731.135531
1783.882784
1830.03663
1867.399267
1892.307692
1907.692308
1916.483516
1917.216117
1913.553114
1902.564103
1888.644689
1874.725275
1855.677656
1835.164835
1808.791209
1778.754579
1747.985348
1717.216117
1687.912088
1663.003663
1641.758242
1625.641026
1611.721612
1602.930403
1600
1599.267399
1601.465201
1605.128205
1610.989011
1616.849817
1622.710623
1628.571429
1629.304029
1627.838828
1623.443223
1614.652015
1600.732601
1584.615385
1564.835165
1545.787546
1526.007326
1506.227106
1487.179487
1466.666667
1449.084249
1432.967033
1416.117216
1401.465201
1387.545788
1372.893773
1358.241758
1344.322344
1331.135531
1321.611722
1313.553114
1306.227106
1300.3663
1295.970696
1291.575092
1290.10989
1286.446886
1282.783883
1277.655678
1273.992674
1268.131868
1259.340659
1251.282051
1243.223443
1238.827839
1237.362637
1236.630037
1238.095238
1240.29304
1243.956044
1245.421245
1245.421245
1244.688645
1243.223443
1239.56044
1238.095238
1235.164835
1234.432234
1235.164835
1235.897436
1238.095238
1235.897436
1234.432234
1231.501832
1227.838828
1224.175824
1221.245421
1218.315018
1216.117216
1213.186813
1210.989011
1208.058608
1205.128205
1202.930403
1200.732601
1200
1200.732601
1203.663004
1204.395604
1205.128205
1207.326007
1209.52381
1210.989011
1215.384615
1220.512821
1227.106227
1233.699634
1238.827839
1241.025641
1241.025641
1243.223443
1242.490842
1239.56044
1236.630037
1235.897436
1242.490842
1255.677656
1279.120879
1311.355311
1357.509158
1415.384615
1479.85348
1551.648352
1625.641026
1697.435897
1764.102564
1821.978022
1871.794872
1913.553114
1945.787546
1965.567766
1975.091575
1973.626374
1965.567766
1953.113553
1937.728938
1916.483516
1894.505495
1869.59707
1846.153846
1822.710623
1798.534799
1772.893773
1746.520147
1720.879121
1694.505495
1671.794872
1652.747253
1636.630037
1622.710623
1614.652015
1610.25641
1605.860806
1605.860806
1605.128205
1603.663004
1599.267399
1594.139194
1586.813187
1575.091575
1561.172161
1546.520147
1531.135531
1515.018315
1498.901099
1481.318681
1464.468864
1450.549451
1435.164835
1421.978022
1410.25641
1397.802198
1383.882784
1369.230769
1356.043956
1342.857143
1328.937729
1315.750916
1303.296703
1293.772894
1286.446886
1280.586081
1275.457875
1271.794872
1268.864469
1267.399267
1265.934066
1264.468864
1260.805861
1257.142857
1253.479853
1251.282051
1249.81685
1248.351648
1251.282051
1257.142857
1263.003663
1268.864469
1273.992674
1275.457875
1273.260073
1268.864469
1263.003663
1258.608059
1252.747253
1246.886447
1241.025641
1232.967033
1224.908425
1219.78022
1217.582418
1215.384615
1212.454212
1211.721612
1213.919414
1219.047619
1227.106227
1236.630037
1243.956044
1249.084249
1251.282051
1249.81685
1246.153846
1243.956044
1239.56044
1232.234432
1223.443223
1215.384615
1207.326007
1200
1196.336996
1194.871795
1194.139194
1194.139194
1194.139194
1195.604396
1197.802198
1202.197802
1208.058608
1210.989011
1213.186813
1217.582418
1221.245421
1228.571429
1241.025641
1263.736264
1294.505495
1337.728938
1393.406593
1454.212454
1517.216117
1583.150183
1645.421245
1704.029304
1753.113553
1797.069597
1830.03663
1854.212454
1871.062271
1879.120879
1879.85348
1874.725275
1864.468864
1848.351648
1828.571429
1805.128205
1780.952381
1756.043956
1726.007326
1693.040293
1660.07326
1630.03663
1602.197802
1578.021978
1558.974359
1545.787546
1536.996337
1534.798535
1537.728938
1544.322344
1550.915751
1557.509158
1564.835165
1572.161172
1577.289377
1583.882784
1588.278388
1589.74359
1588.278388
1583.150183
1576.556777
1566.300366
1555.311355
1539.92674
1520.879121
1499.6337
1476.190476
1451.282051
1426.373626
1405.128205
1385.347985
1363.369963
1339.194139
1315.018315
1292.307692
1273.992674
1260.805861
1251.282051
1243.956044
1236.630037
1230.03663
1224.908425
1219.78022
1216.117216
1216.117216
1217.582418
1220.512821
1224.908425
1230.769231
1237.362637
1243.956044
1252.747253
1260.805861
1271.062271
1279.85348
1285.714286
1289.377289
1292.307692
1293.772894
1290.842491
1284.981685
1277.655678
1268.864469
1260.07326
1256.410256
1252.747253
1249.084249
1244.688645
1238.827839
1232.967033
1225.641026
1219.047619
1210.989011
1202.197802
1194.871795
1188.278388
1180.21978
1176.556777
1178.754579
1183.882784
1191.208791
1202.197802
1211.721612
1216.117216
1218.315018
1217.582418
1216.117216
1214.652015
1213.919414
1213.919414
1213.919414
1211.721612
1208.791209
1204.395604
1202.197802
1200.732601
1204.395604
1213.919414
1232.967033
1263.736264
1306.227106
1363.369963
1430.769231
1508.424908
1590.47619
1673.992674
1752.380952
1825.641026
1887.912088
1938.461538
1975.091575
2000.732601
2016.117216
2021.245421
2016.849817
2006.593407
1991.208791
1970.695971
1948.717949
1926.007326
1901.098901
1875.457875
1849.084249
1820.512821
1789.010989
1756.776557
1726.007326
1699.6337
1678.388278
1662.271062
1653.479853
1649.084249
1647.619048
1651.282051
1655.677656
1660.805861
1661.538462
1662.271062
1660.805861
1654.945055
1648.351648
1642.490842
1633.699634
1624.175824
1611.721612
1597.069597
1579.487179
1557.509158
1532.600733
1508.424908
1482.051282
1454.945055
1429.304029
1405.860806
1386.080586
1369.230769
1355.311355
1344.322344
1334.065934
1325.274725
1319.413919
1313.553114
1307.692308
1301.831502
1295.970696
1293.040293
1294.505495
1295.970696
1295.238095
1292.307692
1287.179487
1284.249084
1282.051282
1280.586081
1279.85348
1277.655678
1273.992674
1268.864469
1264.468864
1262.271062
1260.805861
1259.340659
1257.875458
1258.608059
1260.805861
1265.201465
1270.32967
1273.992674
1274.725275
1272.527473
1270.32967
1266.666667
1263.003663
1258.608059
1254.212454
1249.81685
1244.688645
1238.827839
1232.967033
1225.641026
1219.047619
1213.919414
1209.52381
1205.128205
1201.465201
1199.267399
1198.534799
1197.802198
1197.069597
1200
1202.197802
1204.395604
1202.930403
1201.465201
1199.267399
1197.802198
1198.534799
1199.267399
1200.732601
1200
1198.534799
1197.069597
1197.802198
1200.732601
1204.395604
1210.989011
1223.443223
1241.758242
1268.864469
1305.494505
1353.846154
1415.384615
1487.179487
1569.230769
1654.945055
1740.659341
1820.512821
1895.238095
1959.70696
2014.652015
2057.142857
2087.912088
2106.959707
2117.216117
2117.948718
2112.087912
2097.435897
2078.388278
2055.677656
2032.234432
2004.395604
1972.161172
1934.798535
1896.703297
1858.608059
1822.710623
1786.080586
1751.648352
1720.14652
1696.703297
1679.120879
1668.131868
1660.805861
1660.07326
1663.736264
1671.794872
1679.120879
1685.714286
1691.575092
1693.772894
1689.377289
1682.051282
1671.794872
1659.340659
1646.886447
1637.362637
1624.908425
1611.721612
1594.139194
1574.358974
1555.311355
1536.263736
1514.285714
1490.10989
1464.468864
1438.827839
1412.454212
1389.74359
1368.498168
1351.648352
1338.461538
1327.472527
1319.413919
1312.820513
1304.761905
1297.435897
1289.377289
1285.714286
1282.783883
1280.586081
1278.388278
1276.190476
1274.725275
1271.794872
1268.864469
1265.934066
1263.003663
1260.07326
1256.410256
1253.479853
1250.549451
1249.084249
1249.084249
1250.549451
1251.282051
1251.282051
1249.084249
1246.886447
1244.688645
1240.29304
1234.432234
1229.304029
1223.443223
1216.849817
1209.52381
1202.930403
1195.604396
1189.010989
1180.21978
1175.091575
1169.96337
1166.300366
1161.904762
1157.509158
1154.578755
1154.578755
1155.311355
1158.241758
1160.43956
1164.835165
1168.498168
1172.893773
1177.289377
1182.417582
1186.813187
1190.47619
1194.139194
1199.267399
1202.930403
1206.593407
1207.326007
1206.593407
1205.128205
1204.395604
1202.930403
1200.732601
1201.465201
1208.058608
1223.443223
1249.81685
1284.981685
1334.798535
1394.871795
1464.468864
1540.659341
1621.978022
1702.564103
1778.021978
1849.084249
1912.087912
1962.637363
2000.732601
2027.838828
2039.56044
2037.362637
2027.838828
2012.454212
1994.871795
1973.626374
1954.578755
1934.065934
1909.89011
1882.051282
1853.479853
1821.978022
1789.010989
1755.311355
1722.344322
1693.040293
1668.864469
1647.619048
1634.432234
1626.373626
1624.908425
1627.838828
1632.967033
1640.29304
1646.886447
1652.014652
1657.142857
1663.003663
1669.59707
1673.260073
1671.794872
1661.538462
1649.084249
1633.699634
1613.186813
1589.74359
1564.835165
1538.461538
1512.087912
1487.912088
1462.271062
1436.630037
1410.989011
1386.080586
1364.102564
1342.857143
1326.007326
1314.285714
1305.494505
1298.168498
1291.575092
1284.249084
1279.120879
1272.527473
1265.201465
1259.340659
1256.410256
1258.608059
1262.271062
1268.864469
1272.527473
1276.190476
1276.923077
1279.120879
1282.051282
1283.516484
1284.249084
1284.249084
1284.249084
1283.516484
1281.318681
1274.725275
1265.201465
1252.747253
1238.827839
1226.373626
1216.117216
1207.326007
1201.465201
1200.732601
1206.593407
1215.384615
1223.443223
1231.501832
1238.827839
1243.223443
1245.421245
1245.421245
1242.490842
1236.630037
1230.03663
1223.443223
1215.384615
1204.395604
1193.406593
1183.882784
1178.754579
1178.021978
1179.487179
1180.952381
1182.417582
1182.417582
1179.487179
1176.556777
1172.893773
1168.498168
1165.567766
1163.369963
1167.765568
1176.556777
1192.673993
1216.849817
1252.747253
1300.3663
1359.70696
1430.03663
1510.622711
1597.069597
1684.249084
1767.032967
1843.956044
1911.355311
1967.032967
2010.989011
2042.490842
2061.538462
2068.864469
2063.736264
2051.282051
2032.967033
2010.989011
1987.545788
1962.637363
1934.065934
1903.296703
1868.864469
1832.967033
1795.604396
1760.43956
1727.472527
1697.435897
1672.527473
1654.212454
1640.29304
1630.769231
1624.908425
1624.175824
1628.571429
1638.827839
1647.619048
1654.212454
1657.875458
1658.608059
1657.875458
1653.479853
1645.421245
1636.630037
1623.443223
1605.860806
1586.080586
1563.369963
1539.92674
1516.483516
1493.772894
1471.794872
1451.282051
1429.304029
1408.791209
1390.47619
1374.358974
1359.70696
1345.054945
1334.065934
1323.076923
1314.285714
1305.494505
1297.435897
1292.307692
1287.912088
1284.981685
1282.051282
1279.120879
1276.190476
1271.794872
1267.399267
1263.003663
1259.340659
1256.410256
1254.212454
1251.282051
1248.351648
1246.153846
1245.421245
1244.688645
1247.619048
1249.81685
1254.212454
1260.07326
1266.666667
1268.131868
1268.864469
1268.131868
1266.666667
1263.736264
1260.07326
1253.479853
1247.619048
1240.29304
1232.967033
1227.106227
1221.245421
1216.849817
1213.919414
1209.52381
1206.593407
1203.663004
1200.732601
1198.534799
1194.871795
1189.74359
1185.347985
1181.684982
1178.754579
1177.289377
1174.358974
1174.358974
1172.893773
1169.230769
1162.637363
1156.043956
1151.648352
1146.520147
1143.589744
1141.391941
1139.194139
1137.728938
1140.659341
1147.985348
1161.904762
1179.487179
1202.930403
1231.501832
1272.527473
1325.274725
1392.673993
1471.794872
1563.369963
1660.805861
1761.172161
1858.608059
1949.450549
2030.03663
2098.901099
2153.846154
2197.069597
2225.641026
2241.025641
2244.688645
2238.827839
2224.908425
2207.326007
2184.615385
2159.70696
2136.996337
2115.018315
2093.772894
2070.32967
2044.688645
2017.582418
1987.545788
1957.509158
1927.472527
1899.6337
1871.794872
1849.084249
1828.571429
1810.25641
1797.069597
1787.545788
1782.417582
1780.952381
1776.556777
1767.032967
1756.776557
1742.857143
1729.67033
1715.750916
1702.564103
1687.912088
1671.794872
1651.282051
1626.373626
1598.534799
1570.695971
1545.054945
1522.344322
1503.296703
1485.714286
1471.062271
1457.142857
1443.956044
1431.501832
1421.245421
1409.52381
1395.604396
1378.021978
1358.974359
1341.391941
1323.809524
1310.622711
1302.564103
1297.435897
1294.505495
1293.772894
1290.842491
1287.912088
1284.981685
1282.051282
1278.388278
1278.388278
1277.655678
1278.388278
1281.318681
1287.179487
1290.10989
1288.644689
1284.981685
1279.120879
1271.062271
1260.07326
1249.084249
1239.56044
1232.234432
1226.373626
1221.245421
1219.047619
1217.582418
1216.849817
1215.384615
1212.454212
1208.791209
1204.395604
1200.732601
1195.604396
1189.010989
1185.347985
1183.150183
1179.487179
1175.824176
1171.428571
1167.765568
1164.102564
1162.637363
1164.102564
1169.230769
1175.091575
1181.684982
1186.813187
1191.941392
1193.406593
1194.871795
1194.871795
1193.406593
1190.47619
1185.347985
1180.952381
1175.824176
1170.695971
1162.637363
1156.043956
1149.450549
1142.124542
1131.868132
1122.344322
1113.553114
1106.227106
1101.831502
1099.6337
1098.901099
1101.831502
1109.89011
1120.14652
1136.263736
1158.974359
1192.673993
1238.095238
1298.168498
1372.161172
1458.608059
1554.578755
1654.212454
1750.915751
1842.490842
1925.274725
1996.336996
2054.212454
2096.703297
2123.809524
2139.92674
2146.520147
2144.322344
2134.798535
2119.413919
2104.029304
2090.10989
2076.190476
2063.736264
2049.81685
2031.501832
2008.058608
1980.21978
1947.252747
1911.355311
1874.725275
1839.56044
1808.791209
1782.417582
1759.70696
1745.054945
1733.333333
1728.937729
1725.274725
1725.274725
1726.007326
1726.007326
1722.344322
1716.483516
1704.761905
1690.10989
1672.527473
1652.747253
1634.432234
1614.652015
1594.871795
1573.626374
1547.985348
1522.344322
1494.505495
1468.131868
1442.490842
1419.047619
1397.802198
1378.754579
1360.43956
1341.391941
1322.344322
1305.494505
1290.842491
1278.388278
1268.131868
1257.875458
1249.084249
1243.223443
1238.095238
1234.432234
1232.234432
1231.501832
1230.769231
1228.571429
1226.373626
1221.245421
1217.582418
1214.652015
1213.186813
1213.186813
1211.721612
1210.989011
1209.52381
1210.25641
1212.454212
1215.384615
1216.849817
1216.117216
1215.384615
1215.384615
1213.186813
1208.791209
1202.930403
1197.802198
1194.871795
1191.941392
1188.278388
1185.347985
1181.684982
1178.754579
1175.824176
1172.161172
1167.032967
1158.974359
1147.252747
1134.065934
1120.14652
1109.157509
1101.831502
1098.168498
1096.703297
1097.435897
1099.6337
1101.098901
1104.029304
1107.692308
1112.087912
1119.413919
1124.542125
1129.67033
1131.135531
1134.065934
1136.996337
1139.92674
1142.124542
1144.322344
1147.985348
1147.985348
1147.985348
1145.054945
1139.194139
1133.333333
1128.205128
1124.542125
1120.879121
1117.948718
1116.483516
1115.750916
1117.948718
1123.809524
1134.065934
1150.915751
1171.428571
1202.197802
1244.688645
1298.168498
1362.637363
1433.699634
1505.494505
1577.289377
1643.956044
1705.494505
1758.241758
1802.197802
1835.164835
1857.142857
1870.32967
1873.992674
1872.527473
1865.934066
1858.608059
1847.619048
1832.234432
1812.454212
1790.47619
1766.300366
1738.461538
1707.692308
1671.794872
1635.164835
1600
1568.498168
1543.589744
1522.344322
1506.227106
1495.238095
1490.842491
1493.040293
1500.3663
1512.820513
1527.472527
1539.92674
1547.985348
1549.450549
1546.520147
1536.263736
1524.542125
1512.820513
1503.296703
1493.772894
1484.249084
1472.527473
1456.410256
1435.897436
1414.652015
1391.208791
1368.498168
1345.054945
1324.542125
1304.761905
1286.446886
1269.59707
1255.677656
1242.490842
1232.234432
1222.710623
1216.117216
1210.25641
1205.128205
1202.930403
1202.197802
1202.197802
1202.930403
1202.197802
1200
1197.802198
1196.336996
1194.139194
1190.47619
1186.813187
1182.417582
1180.21978
1178.021978
1177.289377
1177.289377
1178.021978
1178.754579
1178.021978
1179.487179
1180.21978
1181.684982
1182.417582
1183.150183
1185.347985
1186.080586
1187.545788
1189.010989
1187.545788
1187.545788
1185.347985
1182.417582
1178.754579
1173.626374
1167.765568
1160.43956
1152.380952
1145.054945
1136.996337
1132.600733
1129.67033
1126.739927
1126.739927
1126.007326
1125.274725
1126.739927
1128.205128
1128.205128
1127.472527
1126.739927
1125.274725
1126.007326
1128.205128
1131.135531
1131.135531
1130.40293
1128.205128
1126.739927
1126.007326
1125.274725
1122.344322
1120.879121
1122.344322
1123.809524
1126.007326
1127.472527
1131.135531
1136.263736
1145.787546
1161.172161
1183.882784
1216.117216
1257.142857
1308.424908
1368.498168
1435.897436
1505.494505
1575.824176
1642.490842
1704.029304
1755.311355
1798.534799
1830.769231
1854.212454
1871.794872
1879.85348
1880.586081
1875.457875
1865.201465
1850.549451
1835.164835
1816.849817
1794.871795
1773.626374
1751.648352
1728.937729
1704.029304
1679.120879
1653.479853
1630.03663
1605.860806
1583.150183
1562.637363
1544.322344
1526.007326
1509.89011
1497.435897
1491.575092
1488.644689
1487.179487
1487.179487
1490.10989
1490.842491
1490.10989
1487.912088
1483.516484
1476.190476
1466.666667
1455.677656
1443.223443
1428.571429
1415.384615
1400
1385.347985
1370.695971
1358.241758
1348.717949
1341.391941
1331.868132
1320.14652
1307.692308
1298.168498
1289.377289
1283.516484
1277.655678
1271.062271
1263.003663
1256.410256
1247.619048
1238.827839
1229.304029
1219.047619
1210.25641
1201.465201
1197.802198
1196.336996
1197.069597
1197.802198
1197.802198
1197.802198
1199.267399
1199.267399
1198.534799
1197.802198
1194.871795
1194.871795
1194.871795
1196.336996
1194.139194
1194.139194
1191.208791
1187.545788
1183.882784
1179.487179
1172.161172
1165.567766
1161.172161
1158.974359
1157.509158
1156.043956
1156.043956
1154.578755
1153.846154
1153.846154
1153.113553
1151.648352
1150.18315
1149.450549
1148.717949
1148.717949
1145.787546
1139.92674
1132.600733
1125.274725
1121.611722
1120.14652
1119.413919
1119.413919
1120.14652
1125.274725
1128.205128
1131.135531
1136.263736
1142.124542
1145.787546
1150.18315
1150.915751
1149.450549
1146.520147
1145.787546
1144.322344
1142.124542
1140.659341
1139.194139
1139.194139
1139.194139
1140.659341
1148.717949
1159.70696
1169.230769
1180.21978
1192.673993
1207.326007
1224.175824
1247.619048
1278.388278
1317.216117
1361.172161
1411.721612
1463.736264
1513.553114
1564.102564
1610.989011
1654.212454
1688.644689
1717.948718
1742.857143
1761.904762
1776.556777
1787.545788
1793.406593
1794.871795
1790.47619
1784.615385
1775.824176
1765.567766
1750.915751
1732.600733
1709.157509
1686.446886
1661.538462
1635.897436
1609.52381
1587.545788
1570.695971
1558.241758
1548.717949
1541.391941
1534.798535
1528.205128
1523.076923
1517.948718
1512.820513
1505.494505
1498.901099
1491.575092
1484.249084
1475.457875
1466.666667
1458.608059
1450.549451
1441.025641
1427.838828
1415.384615
1401.465201
1384.615385
1367.765568
1349.450549
1329.67033
1312.087912
1294.505495
1279.85348
1268.864469
1258.608059
1251.282051
1243.956044
1237.362637
1230.769231
1225.641026
1221.978022
1219.78022
1215.384615
1206.593407
1198.534799
1189.010989
1180.21978
1174.358974
1172.893773
1171.428571
1174.358974
1176.556777
1179.487179
1180.952381
1181.684982
1183.882784
1187.545788
1189.010989
1188.278388
1187.545788
1185.347985
1180.952381
1178.754579
1174.358974
1171.428571
1168.498168
1167.765568
1167.765568
1168.498168
1168.498168
1167.032967
1164.835165
1162.637363
1159.70696
1158.974359
1157.509158
1157.509158
1158.241758
1159.70696
1160.43956
1161.904762
1164.835165
1168.498168
1169.96337
1172.161172
1172.161172
1170.695971
1167.032967
1164.835165
1161.904762
1159.70696
1158.241758
1157.509158
1157.509158
1156.043956
1153.113553
1150.915751
1147.985348
1146.520147
1147.985348
1150.915751
1153.846154
1156.043956
1157.509158
1158.241758
1159.70696
1163.369963
1169.96337
1178.754579
1187.545788
1197.069597
1205.128205
1208.791209
1211.721612
1215.384615
1216.117216
1216.849817
1217.582418
1218.315018
1221.978022
1229.304029
1242.490842
1263.003663
1290.842491
1321.611722
1358.241758
1398.534799
1440.29304
1482.783883
1522.344322
1558.974359
1591.208791
1618.315018
1638.827839
1651.282051
1658.608059
1658.608059
1648.351648
1633.699634
1618.315018
1604.395604
1589.010989
1574.358974
1559.70696
1545.054945
1528.205128
1513.553114
1497.435897
1484.249084
1473.260073
1466.666667
1462.271062
1457.142857
1454.945055
1454.212454
1455.677656
1458.608059
1460.07326
1462.271062
1464.468864
1465.934066
1463.736264
1457.875458
1449.81685
1441.758242
1432.967033
1424.908425
1416.117216
1408.058608
1397.069597
1383.150183
1367.765568
1353.846154
1341.391941
1329.67033
1319.413919
1310.622711
1305.494505
1300.3663
1295.970696
1291.575092
1287.179487
1281.318681
1274.725275
1267.399267
1260.07326
1252.014652
1243.223443
1236.630037
1232.967033
1229.304029
1225.641026
1222.710623
1222.710623
1226.373626
1232.234432
1238.827839
1243.223443
1241.758242
1237.362637
1231.501832
1227.106227
1224.908425
1224.908425
1227.106227
1228.571429
1230.03663
1231.501832
1231.501832
1229.304029
1224.908425
1219.78022
1216.117216
1210.989011
1210.25641
1208.791209
1203.663004
1195.604396
1186.813187
1176.556777
1167.032967
1158.974359
1150.915751
1145.787546
1145.054945
1143.589744
1145.054945
1147.985348
1152.380952
1157.509158
1161.172161
1164.835165
1170.695971
1174.358974
1175.091575
1177.289377
1180.21978
1182.417582
1183.882784
1186.813187
1187.545788
1189.010989
1190.47619
1191.941392
1194.139194
1194.871795
1195.604396
1197.802198
1200
1200.732601
1201.465201
1202.930403
1208.058608
1213.919414
1220.512821
1231.501832
1245.421245
1264.468864
1288.644689
1317.216117
1350.18315
1386.080586
1425.641026
1468.864469
1515.018315
1556.776557
1592.673993
1621.978022
1646.153846
1663.003663
1676.190476
1684.249084
1689.377289
1690.842491
1690.10989
1686.446886
1681.318681
1673.992674
1663.736264
1650.549451
1632.967033
1610.25641
1589.010989
1570.695971
1552.380952
1536.263736
1522.344322
1510.622711
1503.296703
1496.703297
1493.040293
1490.842491
1492.307692
1493.772894
1496.703297
1500.3663
1502.564103
1501.098901
1499.6337
1494.505495
1488.644689
1480.586081
1473.992674
1466.666667
1457.142857
1445.421245
1433.699634
1421.245421
1406.593407
1390.47619
1375.824176
1361.172161
1346.520147
1331.135531
1315.750916
1302.564103
1290.842491
1280.586081
1273.992674
1268.864469
1264.468864
1262.271062
1260.805861
1260.805861
1261.538462
1261.538462
1260.805861
1260.07326
1259.340659
1259.340659
1260.805861
1260.07326
1258.608059
1253.479853
1249.81685
1245.421245
1242.490842
1238.827839
1238.095238
1235.897436
1234.432234
1231.501832
1228.571429
1225.641026
1224.908425
1224.908425
1227.106227
1230.769231
1236.630037
1241.025641
1243.223443
1246.153846
1247.619048
1249.084249
1249.81685
1249.084249
1250.549451
1250.549451
1249.81685
1246.886447
1243.956044
1240.29304
1235.164835
1229.304029
1223.443223
1219.047619
1213.186813
1205.860806
1200
1196.336996
1195.604396
1197.802198
1200
1200.732601
1201.465201
1201.465201
1202.930403
1203.663004
1205.860806
1210.25641
1214.652015
1219.047619
1221.978022
1224.908425
1229.304029
1231.501832
1232.967033
1235.897436
1238.827839
1240.29304
1240.29304
1241.025641
1245.421245
1252.014652
1261.538462
1279.120879
1302.564103
1332.600733
1367.765568
1405.860806
1446.153846
1484.981685
1521.611722
1553.846154
1586.080586
1619.78022
1653.479853
1683.516484
1708.424908
1727.472527
1743.589744
1753.846154
1758.974359
1761.172161
1759.70696
1752.380952
1745.054945
1734.798535
1724.542125
1712.087912
1699.6337
1687.179487
1674.725275
1662.271062
1649.81685
1638.095238
1630.03663
1623.443223
1619.047619
1616.117216
1614.652015
1613.919414
1611.721612
1608.058608
1602.930403
1599.267399
1594.139194
1586.813187
1579.487179
1570.695971
1561.172161
1548.717949
1534.065934
1515.018315
1495.238095
1473.992674
1454.945055
1436.630037
1419.78022
1403.663004
1389.74359
1377.289377
1364.835165
1353.113553
1342.857143
1335.531136
1328.205128
1323.809524
1319.413919
1315.018315
1311.355311
1306.959707
1301.098901
1293.772894
1287.912088
1283.516484
1279.120879
1273.992674
1271.062271
1265.934066
1260.07326
1256.410256
1253.479853
1252.747253
1251.282051
1252.014652
1253.479853
1254.212454
1254.945055
1255.677656
1256.410256
1254.945055
1253.479853
1252.747253
1253.479853
1254.212454
1253.479853
1252.747253
1251.282051
1251.282051
1249.084249
1248.351648
1246.886447
1244.688645
1243.223443
1241.758242
1239.56044
1237.362637
1235.897436
1232.967033
1230.03663
1227.838828
1225.641026
1224.175824
1221.978022
1220.512821
1220.512821
1220.512821
1221.245421
1222.710623
1224.908425
1227.106227
1229.304029
1232.234432
1235.164835
1236.630037
1238.095238
1238.827839
1239.56044
1240.29304
1237.362637
1233.699634
1231.501832
1233.699634
1239.56044
1245.421245
1252.747253
1258.608059
1263.003663
1263.003663
1257.875458
1251.282051
1244.688645
1240.29304
1240.29304
1246.153846
1256.410256
1273.260073
1298.168498
1331.868132
1374.358974
1421.978022
1471.794872
1521.611722
1570.695971
1615.384615
1657.142857
1693.040293
1716.483516
1729.67033
1736.996337
1740.659341
1742.124542
1740.659341
1737.728938
1732.600733
1727.472527
1720.879121
1712.087912
1704.761905
1696.703297
1689.377289
1683.516484
1678.388278
1671.794872
1665.934066
1661.538462
1657.142857
1652.014652
1646.886447
1641.025641
1638.095238
1637.362637
1637.362637
1636.630037
1638.095238
1639.56044
1641.025641
1641.025641
1636.630037
1630.03663
1619.047619
1605.128205
1588.278388
1570.695971
1549.450549
1526.739927
1503.296703
1481.318681
1457.875458
1433.699634
1410.25641
1387.545788
1367.765568
1351.648352
1340.659341
1331.135531
1323.076923
1315.018315
1309.157509
1304.029304
1301.098901
1300.3663
1298.901099
1299.6337
1300.3663
1304.761905
1308.424908
1311.355311
1312.087912
1310.622711
1307.692308
1303.296703
1297.435897
1292.307692
1287.912088
1284.981685
1284.981685
1284.249084
1284.981685
1286.446886
1285.714286
1285.714286
1287.179487
1289.377289
1290.10989
1288.644689
1284.249084
1279.120879
1271.794872
1265.934066
1260.805861
1257.875458
1254.212454
1252.014652
1249.81685
1247.619048
1245.421245
1241.758242
1238.827839
1236.630037
1234.432234
1233.699634
1235.164835
1237.362637
1239.56044
1241.025641
1243.223443
1241.758242
1241.025641
1241.025641
1241.025641
1241.025641
1242.490842
1243.956044
1245.421245
1245.421245
1245.421245
1246.153846
1243.956044
1241.758242
1240.29304
1238.827839
1235.164835
1233.699634
1233.699634
1236.630037
1243.223443
1254.945055
1273.260073
1300.3663
1332.600733
1373.626374
1420.512821
1471.062271
1522.344322
1575.091575
1625.641026
1674.725275
1718.681319
1755.311355
1784.615385
1809.52381
1829.304029
1844.688645
1854.212454
1857.875458
1854.945055
1847.619048
1835.897436
1821.245421
1802.197802
1782.417582
1758.241758
1732.600733
1707.692308
1683.516484
1662.271062
1645.421245
1631.501832
1621.245421
1615.384615
1613.919414
1619.047619
1627.838828
1638.827839
1649.81685
1659.340659
1666.666667
1671.062271
1672.527473
1671.062271
1667.399267
1661.538462
1652.747253
1639.56044
1622.710623
1602.197802
1580.21978
1556.776557
1532.600733
1511.355311
1493.772894
1476.923077
1460.07326
1443.956044
1426.373626
1411.721612
1398.534799
1385.347985
1372.161172
1361.904762
1354.578755
1347.985348
1345.054945
1342.124542
1341.391941
1338.461538
1334.065934
1328.205128
1320.879121
1313.553114
1304.761905
1297.435897
1290.10989
1284.981685
1282.783883
1282.783883
1284.981685
1286.446886
1288.644689
1290.10989
1288.644689
1282.051282
1272.527473
1262.271062
1253.479853
1246.886447
1241.758242
1240.29304
1239.56044
1243.223443
1249.084249
1254.945055
1260.805861
1265.201465
1269.59707
1271.794872
1271.794872
1268.864469
1264.468864
1260.07326
1254.945055
1250.549451
1247.619048
1245.421245
1245.421245
1243.956044
1243.956044
1244.688645
1246.153846
1243.223443
1237.362637
1230.03663
1224.175824
1221.978022
1222.710623
1225.641026
1231.501832
1235.164835
1238.095238
1242.490842
1245.421245
1245.421245
1243.956044
1241.758242
1243.956044
1239.56044
1236.630037
1230.03663
1222.710623
1214.652015
1208.791209
1204.395604
1205.128205
1210.25641
1223.443223
1243.956044
1273.992674
1314.285714
1367.032967
1428.571429
1499.6337
1572.893773
1649.084249
1720.879121
1787.545788
1849.084249
1901.098901
1946.520147
1983.150183
2011.721612
2028.571429
2037.362637
2041.025641
2041.025641
2033.699634
2021.978022
2005.860806
1983.882784
1961.904762
1936.996337
1910.622711
1882.783883
1855.677656
1831.501832
1809.52381
1791.208791
1777.289377
1767.032967
1760.43956
1756.776557
1755.311355
1758.241758
1758.974359
1757.509158
1754.578755
1751.648352
1745.787546
1736.996337
1728.205128
1718.681319
1707.692308
1697.435897
1684.981685
1671.794872
1656.410256
1637.362637
1615.384615
1590.47619
1566.300366
1537.728938
1507.692308
1478.388278
1451.282051
1426.373626
1404.395604
1385.347985
1370.695971
1358.974359
1348.717949
1339.92674
1332.600733
1326.739927
1322.344322
1320.14652
1317.216117
1317.216117
1320.879121
1326.739927
1334.065934
1340.659341
1345.054945
1347.985348
1348.717949
1347.252747
1342.124542
1332.600733
1318.681319
1303.296703
1287.179487
1272.527473
1259.340659
1249.81685
1242.490842
1238.827839
1239.56044
1244.688645
1252.014652
1260.805861
1270.32967
1278.388278
1282.783883
1282.051282
1278.388278
1273.260073
1265.201465
1257.875458
1249.084249
1241.758242
1237.362637
1233.699634
1229.304029
1224.908425
1221.245421
1218.315018
1216.117216
1216.117216
1216.849817
1216.117216
1214.652015
1210.989011
1207.326007
1205.128205
1202.197802
1200.732601
1197.802198
1195.604396
1194.871795
1197.802198
1199.267399
1202.197802
1204.395604
1205.860806
1207.326007
1208.791209
1211.721612
1218.315018
1223.443223
1230.03663
1236.630037
1242.490842
1250.549451
1261.538462
1276.923077
1299.6337
1331.135531
1372.893773
1424.175824
1484.249084
1548.717949
1617.582418
1686.446886
1756.043956
1820.512821
1878.388278
1927.472527
1967.032967
1993.406593
2011.721612
2019.78022
2022.710623
2019.78022
2013.186813
2005.860806
1993.406593
1978.021978
1958.974359
1936.996337
1910.622711
1882.051282
1854.945055
1826.373626
1801.465201
1780.952381
1765.567766
1755.311355
1748.717949
1747.252747
1747.985348
1751.648352
1754.578755
1756.776557
1758.241758
1757.509158
1753.113553
1746.520147
1737.728938
1727.472527
1715.750916
1701.831502
1685.714286
1665.934066
1644.688645
1624.175824
1602.930403
1580.952381
1560.43956
1540.659341
1523.076923
1505.494505
1488.644689
1471.062271
1453.479853
1435.897436
1419.047619
1402.197802
1386.813187
1371.428571
1358.241758
1347.252747
1337.728938
1329.67033
1325.274725
1321.611722
1320.14652
1317.216117
1317.216117
1317.216117
1318.681319
1318.681319
1316.483516
1314.285714
1312.087912
1312.087912
1312.087912
1311.355311
1311.355311
1310.622711
1309.89011
1307.692308
1304.761905
1301.831502
1297.435897
1292.307692
1285.714286
1277.655678
1272.527473
1241.758242
1242.490842
1245.421245
1248.351648
1252.014652
1253.479853
1254.945055
1255.677656
1253.479853
1248.351648
1241.025641
1229.304029
1218.315018
1208.791209
1202.197802
1195.604396
1191.208791
1186.080586
1180.952381
1178.754579
1178.021978
1179.487179
1183.150183
1191.941392
1202.930403
1218.315018
1239.56044
1269.59707
1309.89011
1359.70696
1421.245421
1490.10989
1566.300366
1646.153846
1727.472527
1804.395604
1876.190476
1939.194139
1993.406593
2036.630037
2071.794872
2093.772894
2106.959707
2110.622711
2106.959707
2096.703297
2082.051282
2061.538462
2038.095238
2007.326007
1972.161172
1936.996337
1899.6337
1861.538462
1824.908425
1789.74359
1760.43956
1737.728938
1720.879121
1706.959707
1699.6337
1699.6337
1703.296703
1710.622711
1717.216117
1723.809524
1726.739927
1728.937729
1729.67033
1728.205128
1723.809524
1717.948718
1707.692308
1693.772894
1676.923077
1657.875458
1639.56044
1618.315018
1594.139194
1568.498168
1542.124542
1516.483516
1490.842491
1467.399267
1445.421245
1427.106227
1413.186813
1398.534799
1387.545788
1379.487179
1377.289377
1379.487179
1381.684982
1384.615385
1388.278388
1391.208791
1395.604396
1398.534799
1401.465201
1401.465201
1399.267399
1391.941392
1383.150183
1374.358974
1367.032967
1359.70696
1350.915751
1341.391941
1332.600733
1325.274725
1320.879121
1319.413919
1319.413919
1317.948718
1315.750916
1313.553114
1314.285714
1312.820513
1312.087912
1309.157509
1306.227106
1301.098901
1295.970696
1290.842491
1287.912088
1285.714286
1282.051282
1276.190476
1270.32967
1264.468864
1256.410256
1249.084249
1242.490842
1236.630037
1232.234432
1230.03663
1228.571429
1227.838828
1227.838828
1227.106227
1225.641026
1225.641026
1227.106227
1232.234432
1243.956044
1263.003663
1295.970696
1347.985348
1416.117216
1499.6337
1594.139194
1695.238095
1798.534799
1901.831502
2000
2090.10989
2169.230769
2233.699634
2285.714286
2324.542125
2350.915751
2363.369963
2367.032967
2363.369963
2355.311355
2344.322344
2330.40293
2315.018315
2295.970696
2271.794872
2246.153846
2216.117216
2182.417582
2145.054945
2106.959707
2067.399267
2027.838828
1987.545788
1950.915751
1919.413919
1894.505495
1875.457875
1862.271062
1852.747253
1849.084249
1847.619048
1846.886447
1848.351648
1849.084249
1844.688645
1837.362637
1826.373626
1813.186813
1795.604396
1777.289377
1756.776557
1738.461538
1717.948718
1695.970696
1671.062271
1645.421245
1618.315018
1590.47619
1564.835165
1540.659341
1517.948718
1495.238095
1476.923077
1460.805861
1448.351648
1437.362637
1428.571429
1422.710623
1416.849817
1410.25641
1403.663004
1397.069597
1391.208791
1386.813187
1383.150183
1379.487179
1371.428571
1363.369963
1356.043956
1349.450549
1342.857143
1334.065934
1325.274725
1315.018315
1302.564103
1288.644689
1274.725275
1265.201465
1257.142857
1252.014652
1247.619048
1245.421245
1243.956044
1243.956044
1243.956044
1249.084249
1254.212454
1260.07326
1263.003663
1264.468864
1264.468864
1261.538462
1254.945055
1246.886447
1236.630037
1224.175824
1214.652015
1205.860806
1197.069597
1190.47619
1183.882784
1177.289377
1169.230769
1162.637363
1157.509158
1156.043956
1156.776557
1161.172161
1169.96337
1187.545788
1213.919414
1252.747253
1305.494505
1372.161172
1452.014652
1539.92674
1633.699634
1729.67033
1823.443223
1910.622711
1989.010989
2057.875458
2114.285714
2159.70696
2190.47619
2206.593407
2210.989011
2205.128205
2191.941392
2174.358974
2154.578755
2135.531136
2112.820513
2088.644689
2061.538462
2032.967033
2001.465201
1967.765568
1933.333333
1898.168498
1863.003663
1828.571429
1798.534799
1773.626374
1753.113553
1739.194139
1726.739927
1714.285714
1704.761905
1695.970696
1690.10989
1684.981685
1679.85348
1676.190476
1668.131868
1660.07326
1649.084249
1637.362637
1623.443223
1606.593407
1586.080586
1564.835165
1541.391941
1517.216117
1493.772894
1471.794872
1449.084249
1424.908425
1402.930403
1382.417582
1361.904762
1344.322344
1328.205128
1312.820513
1298.168498
1284.981685
1272.527473
1261.538462
1251.282051
1239.56044
1230.03663
1219.78022
1209.52381
1204.395604
1199.267399
1194.871795
1188.278388
1182.417582
1177.289377
1172.161172
1166.300366
1159.70696
1151.648352
1141.391941
1133.333333
1127.472527
1126.007326
1124.542125
1125.274725
1128.205128
1131.135531
1131.135531
1127.472527
1119.413919
1111.355311
1104.029304
1096.703297
1088.644689
1083.516484
1078.388278
1075.457875
1073.260073
1071.062271
1069.59707
1069.59707
1071.794872
1073.992674
1076.923077
1077.655678
1079.120879
1080.586081
1081.318681
1083.516484
1085.714286
1090.10989
1098.901099
1109.157509
1123.076923
1143.589744
1170.695971
1205.128205
1251.282051
1306.959707
1370.695971
1440.29304
1515.018315
1589.010989
1661.538462
1731.868132
1793.406593
1845.421245
1884.249084
1911.355311
1927.472527
1932.600733
1927.472527
1913.553114
1893.040293
1869.59707
1845.421245
1819.047619
1791.941392
1764.102564
1736.263736
1705.494505
1673.260073
1639.56044
1605.860806
1572.893773
1542.857143
1514.285714
1491.575092
1473.992674
1460.805861
1452.747253
1449.084249
1449.81685
1456.410256
1465.934066
1475.457875
1484.249084
1493.040293
1497.435897
1498.168498
1493.772894
1485.714286
1473.992674
1459.340659
1441.758242
1426.373626
1408.058608
1387.545788
1366.300366
1345.787546
1326.739927
1309.89011
1292.307692
1274.725275
1254.945055
1235.164835
1216.117216
1197.802198
1180.952381
1166.300366
1153.846154
1144.322344
1136.996337
1132.600733
1130.40293
1131.868132
1134.798535
1138.461538
1142.124542
1143.589744
1141.391941
1138.461538
1136.263736
1133.333333
1129.67033
1126.007326
1122.344322
1120.14652
1116.483516
1112.820513
1109.157509
1104.761905
1101.831502
1101.098901
1101.098901
1099.6337
1095.970696
1091.575092
1087.912088
1082.783883
1078.388278
1073.992674
1069.59707
1068.131868
1067.399267
1067.399267
1066.666667
1065.934066
1064.468864
1063.003663
1063.003663
1064.468864
1067.399267
1073.260073
1083.516484
1101.098901
1124.542125
1157.509158
1198.534799
1247.619048
1301.098901
1360.43956
1422.710623
1485.714286
1545.054945
1600
1647.619048
1688.644689
1721.611722
1747.985348
1765.567766
1775.091575
1776.556777
1772.893773
1765.567766
1756.043956
1745.054945
1734.065934
1719.413919
1702.564103
1683.516484
1660.07326
1631.501832
1599.267399
1565.567766
1531.868132
1498.901099
1469.59707
1445.421245
1424.175824
1408.058608
1395.604396
1386.080586
1381.684982
1381.684982
1383.882784
1387.545788
1391.208791
1391.941392
1394.871795
1393.406593
1391.208791
1386.813187
1381.684982
1375.091575
1364.835165
1350.18315
1332.600733
1315.750916
1300.3663
1287.179487
1273.260073
1261.538462
1249.81685
1236.630037
1225.641026
1213.919414
1205.860806
1199.267399
1191.941392
1184.615385
1177.289377
1167.032967
1158.974359
1150.915751
1143.589744
1136.263736
1129.67033
1124.542125
1116.483516
1109.157509
1103.296703
1095.238095
1088.644689
1081.318681
1075.457875
1068.864469
1063.736264
1057.875458
1051.282051
1046.153846
1043.956044
1043.956044
1043.956044
1043.223443
1043.956044
1042.490842
1040.29304
1039.56044
1036.630037
1032.234432
1027.838828
1025.641026
1024.175824
1022.710623
1021.245421
1019.047619
1018.315018
1015.384615
1013.186813
1010.989011
1010.25641
1011.721612
1018.315018
1031.501832
1052.014652
1078.388278
1114.285714
1157.509158
1205.860806
1256.410256
1309.157509
1361.904762
1411.721612
1459.340659
1500.3663
1534.065934
1561.904762
1580.21978
1591.208791
1592.673993
1590.47619
1583.882784
1575.091575
1565.567766
1554.578755
1541.391941
1529.67033
1516.483516
1502.564103
1487.912088
1471.794872
1452.014652
1431.501832
1410.989011
1391.208791
1372.893773
1358.974359
1350.915751
1347.252747
1347.985348
1350.18315
1352.380952
1355.311355
1358.241758
1358.974359
1356.043956
1348.717949
1339.92674
1330.40293
1321.611722
1311.355311
1300.3663
1290.10989
1279.85348
1268.864469
1258.608059
1248.351648
1237.362637
1225.641026
1211.721612
1198.534799
1186.080586
1174.358974
1164.102564
1156.776557
1148.717949
1141.391941
1134.798535
1131.868132
1131.868132
1134.065934
1137.728938
1140.659341
1142.124542
1142.857143
1142.857143
1144.322344
1145.054945
1145.054945
1142.857143
1139.92674
1135.531136
1131.135531
1126.739927
1122.344322
1117.948718
1112.820513
1107.692308
1104.761905
1102.564103
1099.6337
1097.435897
1095.970696
1093.040293
1088.644689
1083.516484
1080.586081
1078.388278
1077.655678
1080.586081
1083.516484
1087.179487
1093.040293
1098.168498
1102.564103
1107.692308
1112.087912
1117.216117
1121.611722
1122.344322
1123.809524
1125.274725
1127.472527
1128.937729
1131.868132
1138.461538
1146.520147
1154.578755
1164.102564
1178.754579
1197.802198
1219.047619
1243.956044
1270.32967
1300.3663
1331.135531
1360.43956
1389.010989
1410.989011
1424.908425
1430.769231
1428.571429
1422.710623
1412.454212
1400
1385.347985
1369.96337
1354.578755
1339.194139
1323.076923
1309.157509
1296.703297
1284.249084
1273.260073
1261.538462
1249.084249
1237.362637
1224.908425
1215.384615
1205.128205
1195.604396
1187.545788
1183.150183
1179.487179
1176.556777
1173.626374
1172.161172
1169.96337
1167.032967
1164.835165
1162.637363
1161.172161
1161.904762
1161.904762
1160.43956
1157.509158
1156.043956
1156.043956
1156.043956
1156.043956
1156.043956
1155.311355
1157.509158
1158.974359
1158.974359
1156.043956
1152.380952
1147.252747
1141.391941
1136.996337
1132.600733
1129.67033
1128.205128
1127.472527
1127.472527
1126.739927
1126.739927
1128.937729
1130.40293
1131.868132
1131.135531
1130.40293
1130.40293
1131.868132
1134.798535
1136.996337
1139.92674
1141.391941
1142.857143
1142.857143
1144.322344
1145.787546
1147.985348
1150.915751
1153.113553
1155.311355
1155.311355
1153.846154
1150.18315
1146.520147
1145.787546
1147.252747
1150.18315
1154.578755
1158.974359
1162.637363
1166.300366
1168.498168
1169.96337
1169.96337
1169.230769
1168.498168
1171.428571
1178.021978
1184.615385
1191.941392
1200.732601
1210.25641
1221.245421
1232.234432
1242.490842
1254.212454
1268.131868
1280.586081
1295.238095
1308.424908
1322.344322
1334.065934
1345.054945
1353.846154
1356.776557
1355.311355
1351.648352
1346.520147
1337.728938
1324.542125
1309.157509
1295.970696
1287.179487
1278.388278
1270.32967
1263.003663
1252.747253
1241.025641
1230.769231
1222.710623
1216.117216
1211.721612
1207.326007
1205.128205
1203.663004
1202.197802
1200
1198.534799
1196.336996
1193.406593
1191.208791
1189.74359
1188.278388
1186.813187
1184.615385
1180.952381
1178.754579
1177.289377
1177.289377
1179.487179
1180.21978
1181.684982
1182.417582
1183.150183
1180.952381
1180.21978
1178.754579
1178.754579
1178.754579
1177.289377
1177.289377
1177.289377
1177.289377
1176.556777
1175.824176
1174.358974
1173.626374
1174.358974
1174.358974
1174.358974
1174.358974
1174.358974
1175.824176
1177.289377
1178.021978
1175.824176
1172.161172
1165.567766
1158.241758
1150.915751
1145.054945
1142.124542
1143.589744
1146.520147
1150.18315
1153.846154
1156.043956
1157.509158
1159.70696
1161.904762
1163.369963
1161.904762
1161.904762
1162.637363
1163.369963
1164.835165
1167.032967
1168.498168
1169.230769
1169.96337
1172.161172
1177.289377
1184.615385
1193.406593
1204.395604
1218.315018
1233.699634
1251.282051
1269.59707
1286.446886
1301.098901
1311.355311
1319.413919
1327.472527
1331.135531
1333.333333
1332.600733
1327.472527
1319.413919
1310.622711
1300.3663
1290.842491
1284.249084
1277.655678
1271.794872
1266.666667
1261.538462
1257.875458
1255.677656
1253.479853
1250.549451
1249.084249
1249.084249
1249.81685
1249.81685
1250.549451
1249.81685
1248.351648
1247.619048
1246.886447
1243.223443
1238.095238
1232.967033
1229.304029
1228.571429
1228.571429
1227.106227
1225.641026
1227.106227
1232.967033
1237.362637
1243.956044
1246.886447
1247.619048
1242.490842
1235.164835
1225.641026
1216.849817
1208.791209
1202.197802
1194.871795
1189.010989
1183.150183
1180.21978
1177.289377
1175.824176
1173.626374
1172.161172
1171.428571
1170.695971
1172.161172
1174.358974
1177.289377
1181.684982
1183.150183
1183.882784
1183.150183
1182.417582
1180.21978
1179.487179
1177.289377
1175.824176
1174.358974
1171.428571
1168.498168
1166.300366
1165.567766
1165.567766
1166.300366
1165.567766
1164.835165
1166.300366
1169.230769
1174.358974
1180.21978
1183.882784
1186.813187
1189.010989
1188.278388
1189.010989
1190.47619
1195.604396
1200.732601
1207.326007
1214.652015
1221.978022
1231.501832
1241.758242
1253.479853
1265.934066
1278.388278
1289.377289
1300.3663
1314.285714
1326.739927
1339.194139
1345.054945
1345.054945
1339.194139
1329.67033
1317.948718
1310.622711
1303.296703
1298.901099
1293.772894
1286.446886
1276.923077
1268.864469
1260.805861
1254.945055
1249.81685
1243.956044
1238.095238
1233.699634
1230.03663
1227.838828
1225.641026
1225.641026
1227.838828
1228.571429
1228.571429
1230.03663
1232.234432
1233.699634
1237.362637
1240.29304
1245.421245
1249.084249
1250.549451
1250.549451
1250.549451
1250.549451
1246.886447
1241.758242
1237.362637
1234.432234
1232.234432
1232.234432
1232.967033
1233.699634
1233.699634
1234.432234
1236.630037
1239.56044
1242.490842
1246.153846
1248.351648
1249.084249
1249.81685
1252.014652
1251.282051
1249.084249
1246.886447
1246.886447
1249.81685
1252.014652
1253.479853
1254.945055
1256.410256
1257.142857
1255.677656
1253.479853
1252.747253
1251.282051
1248.351648
1246.886447
1244.688645
1241.758242
1236.630037
1231.501832
1224.908425
1220.512821
1216.117216
1213.919414
1210.25641
1208.791209
1205.128205
1204.395604
1206.593407
1213.186813
1220.512821
1232.967033
1249.084249
1265.934066
1285.714286
1304.761905
1321.611722
1337.728938
1348.717949
1355.311355
1358.241758
1359.70696
1361.904762
1366.300366
1369.230769
1371.428571
1370.695971
1372.161172
1372.161172
1372.893773
1372.161172
1370.695971
1364.835165
1358.241758
1350.18315
1340.659341
1331.868132
1320.879121
1309.157509
1298.168498
1287.179487
1276.190476
1268.131868
1262.271062
1259.340659
1263.736264
1268.864469
1278.388278
1288.644689
1297.435897
1304.029304
1309.157509
1307.692308
1304.761905
1297.435897
1292.307692
1285.714286
1279.120879
1272.527473
1268.864469
1264.468864
1262.271062
1261.538462
1260.805861
1260.07326
1257.875458
1254.945055
1252.014652
1250.549451
1249.81685
1250.549451
1252.014652
1253.479853
1252.747253
1250.549451
1248.351648
1245.421245
1242.490842
1238.827839
1237.362637
1237.362637
1238.095238
1238.827839
1239.56044
1241.758242
1243.956044
1246.153846
1247.619048
1246.886447
1246.886447
1246.886447
1246.153846
1245.421245
1245.421245
1245.421245
1246.886447
1247.619048
1246.886447
1243.956044
1241.025641
1238.095238
1235.897436
1234.432234
1232.967033
1230.769231
1229.304029
1227.106227
1227.106227
1228.571429
1235.164835
1243.956044
1254.945055
1268.131868
1281.318681
1293.772894
1306.959707
1319.413919
1331.135531
1339.92674
1344.322344
1346.520147
1347.252747
1346.520147
1342.857143
1336.263736
1328.937729
1320.879121
1315.018315
1308.424908
1302.564103
1298.168498
1295.970696
1298.901099
1301.831502
1301.831502
1299.6337
1293.040293
1284.981685
1276.923077
1269.59707
1265.934066
1265.201465
1265.934066
1268.864469
1272.527473
1273.992674
1274.725275
1275.457875
1274.725275
1273.260073
1271.062271
1267.399267
1264.468864
1261.538462
1256.410256
1248.351648
1240.29304
1231.501832
1221.978022
1213.186813
1201.465201
1186.813187
1169.230769
1152.380952
1134.065934
1115.018315
1094.505495
1074.725275
1054.212454
1035.897436
1019.78022
1004.395604
992.6739927
982.4175824
975.0915751
969.2307692
967.7655678
971.4285714
978.021978
988.2783883
1000.732601
1015.384615
1032.967033
1054.212454
1078.388278
1103.296703
1126.739927
1149.450549
1172.161172
1192.673993
1210.989011
1227.838828
1242.490842
1255.677656
1266.666667
1274.725275
1282.051282
1289.377289
1295.238095
1302.564103
1309.157509
1316.483516
1322.344322
1326.739927
1334.065934
1345.054945
1354.578755
1367.032967
1378.754579
1390.47619
1398.534799
1403.663004
1407.326007
1408.058608
1408.058608
1408.058608
1408.058608
1408.791209
1409.52381
1410.25641
1411.721612
1415.384615
1415.384615
1414.652015
1410.989011
1406.593407
1398.534799
1390.47619
1380.21978
1372.161172
1365.567766
1358.241758
1351.648352
1349.450549
1350.18315
1353.846154
1359.70696
1366.300366
1369.96337
1370.695971
1369.230769
1365.567766
1361.172161
1358.241758
1352.380952
1346.520147
1341.391941
1336.263736
1328.937729
1321.611722
1314.285714
1309.89011
1309.89011
1312.820513
1317.948718
1323.809524
1330.40293
1337.728938
1342.124542
1344.322344
1342.857143
1339.194139
1333.333333
1326.007326
1317.948718
1312.820513
1309.157509
1305.494505
1304.761905
1306.227106
1308.424908
1309.157509
1311.355311
1312.087912
1312.820513
1315.750916
1320.879121
1324.542125
1328.205128
1329.67033
1328.937729
1327.472527
1324.542125
1320.14652
1315.750916
1311.355311
1306.959707
1301.098901
1294.505495
1290.842491
1289.377289
1288.644689
1291.575092
1295.238095
1299.6337
1307.692308
1317.216117
1328.937729
1342.124542
1356.043956
1369.230769
1383.150183
1394.871795
1403.663004
1408.791209
1410.989011
1412.454212
1415.384615
1419.78022
1424.175824
1424.175824
1424.175824
1421.978022
1417.582418
1412.454212
1404.395604
1397.802198
1390.47619
1380.21978
1371.428571
1360.43956
1348.717949
1333.333333
1318.681319
1303.296703
1290.10989
1277.655678
1267.399267
1258.608059
1254.212454
1254.945055
1257.142857
1262.271062
1266.666667
1271.062271
1276.190476
1279.85348
1283.516484
1286.446886
1287.912088
1287.912088
1288.644689
1287.912088
1287.179487
1285.714286
1283.516484
1281.318681
1279.120879
1277.655678
1273.992674
1269.59707
1267.399267
1263.736264
1261.538462
1259.340659
1257.142857
1255.677656
1257.142857
1260.07326
1265.201465
1269.59707
1271.794872
1273.260073
1273.992674
1274.725275
1276.190476
1276.923077
1276.923077
1276.923077
1275.457875
1274.725275
1275.457875
1274.725275
1274.725275
1273.260073
1268.864469
1264.468864
1261.538462
1260.07326
1260.07326
1257.875458
1260.07326
1263.003663
1268.131868
1273.992674
1282.783883
1292.307692
1304.761905
1317.948718
1331.868132
1342.857143
1353.113553
1361.904762
1371.428571
1378.754579
1383.150183
1386.080586
1388.278388
1389.010989
1387.545788
1384.615385
1381.684982
1376.556777
1371.428571
1364.102564
1356.776557
1347.985348
1339.92674
1333.333333
1328.205128
1323.809524
1320.14652
1315.750916
1312.087912
1307.692308
1303.296703
1298.168498
1295.238095
1290.10989
1285.714286
1282.783883
1281.318681
1282.051282
1284.981685
1288.644689
1290.842491
1293.772894
1294.505495
1294.505495
1297.435897
1298.168498
1298.168498
1295.970696
1297.435897
1297.435897
1296.703297
1295.238095
1293.772894
1291.575092
1288.644689
1284.249084
1281.318681
1274.725275
1265.934066
1257.142857
1248.351648
1240.29304
1235.897436
1232.234432
1232.967033
1235.897436
1238.095238
1239.56044
1238.827839
1238.827839
1238.827839
1238.095238
1235.164835
1230.03663
1225.641026
1219.78022
1214.652015
1210.25641
1209.52381
1211.721612
1214.652015
1216.849817
1218.315018
1219.78022
1221.245421
1224.175824
1229.304029
1239.56044
1254.945055
1273.992674
1294.505495
1315.750916
1336.263736
1353.846154
1368.498168
1380.21978
1388.278388
1397.069597
1402.930403
1405.128205
1406.593407
1406.593407
1405.128205
1400
1392.673993
1384.615385
1378.754579
1370.695971
1360.43956
1347.985348
1334.798535
1323.076923
1315.018315
1306.959707
1301.098901
1297.435897
1296.703297
1296.703297
1299.6337
1303.296703
1306.959707
1309.89011
1312.087912
1312.087912
1312.820513
1310.622711
1307.692308
1305.494505
1304.029304
1302.564103
1301.831502
1300.3663
1300.3663
1301.098901
1303.296703
1305.494505
1306.959707
1304.761905
1301.098901
1298.168498
1295.970696
1293.040293
1291.575092
1289.377289
1286.446886
1281.318681
1276.923077
1271.794872
1266.666667
1263.003663
1260.805861
1257.875458
1257.142857
1255.677656
1255.677656
1254.212454
1254.212454
1257.142857
1262.271062
1267.399267
1271.062271
1270.32967
1267.399267
1267.399267
1266.666667
1266.666667
1267.399267
1267.399267
1266.666667
1263.736264
1259.340659
1254.212454
1247.619048
1241.758242
1235.164835
1230.769231
1229.304029
1229.304029
1232.967033
1237.362637
1241.758242
1246.886447
1254.212454
1262.271062
1271.062271
1278.388278
1287.912088
1299.6337
1311.355311
1326.007326
1343.589744
1361.172161
1375.824176
1386.813187
1393.406593
1398.534799
1400.732601
1397.069597
1389.74359
1381.684982
1372.161172
1359.70696
1346.520147
1334.798535
1326.739927
1321.611722
1320.14652
1320.879121
1320.879121
1319.413919
1318.681319
1317.216117
1315.750916
1313.553114
1309.89011
1308.424908
1307.692308
1303.296703
1301.098901
1298.168498
1297.435897
1293.040293
1288.644689
1283.516484
1279.120879
1274.725275
1271.794872
1270.32967
1271.062271
1270.32967
1271.062271
1275.457875
1281.318681
1287.912088
1296.703297
1304.029304
1309.89011
1315.018315
1318.681319
1322.344322
1324.542125
1324.542125
1323.076923
1320.879121
1320.14652
1317.948718
1315.750916
1315.018315
1312.820513
1306.959707
1301.831502
1297.435897
1293.040293
1289.377289
1286.446886
1282.783883
1280.586081
1276.190476
1271.794872
1268.131868
1267.399267
1267.399267
1269.59707
1273.260073
1278.388278
1282.783883
1287.912088
1291.575092
1296.703297
1302.564103
1309.157509
1317.216117
1326.007326
1334.065934
1342.124542
1350.915751
1358.241758
1362.637363
1365.567766
1367.032967
1367.032967
1364.102564
1358.974359
1353.846154
1349.450549
1346.520147
1345.787546
1346.520147
1347.252747
1346.520147
1344.322344
1339.92674
1336.263736
1330.40293
1325.274725
1320.14652
1313.553114
1304.761905
1295.238095
1287.912088
1281.318681
1276.190476
1273.992674
1274.725275
1277.655678
1281.318681
1284.249084
1288.644689
1293.772894
1297.435897
1298.901099
1301.098901
1301.831502
1302.564103
1303.296703
1302.564103
1299.6337
1295.970696
1290.842491
1287.179487
1284.981685
1281.318681
1279.85348
1276.190476
1271.794872
1265.934066
1262.271062
1258.608059
1257.875458
1255.677656
1253.479853
1252.014652
1249.81685
1248.351648
1246.153846
1244.688645
1244.688645
1246.886447
1249.084249
1252.747253
1256.410256
1259.340659
1260.07326
1259.340659
1261.538462
1264.468864
1267.399267
1268.864469
1268.131868
1268.131868
1268.864469
1272.527473
1276.923077
1280.586081
1285.714286
1292.307692
1299.6337
1308.424908
1318.681319
1329.67033
1339.194139
1347.252747
1353.846154
1356.776557
1358.241758
1359.70696
1359.70696
1361.172161
1362.637363
1360.43956
1356.043956
1347.985348
1340.659341
1333.333333
1327.472527
1321.611722
1317.216117
1312.820513
1309.157509
1306.227106
1303.296703
1298.901099
1296.703297
1297.435897
1298.901099
1300.3663
1302.564103
1304.029304
1305.494505
1305.494505
1305.494505
1305.494505
1306.959707
1308.424908
1306.959707
1304.029304
1300.3663
1298.168498
1298.168498
1300.3663
1305.494505
1312.087912
1317.948718
1322.344322
1325.274725
1327.472527
1328.937729
1328.205128
1326.007326
1323.809524
1321.611722
1320.14652
1319.413919
1317.948718
1318.681319
1320.14652
1320.14652
1322.344322
1325.274725
1329.67033
1335.531136
1340.659341
1344.322344
1347.985348
1349.450549
1352.380952
1357.509158
1362.637363
1366.300366
1367.032967
1367.032967
1366.300366
1363.369963
1360.43956
1359.70696
1361.172161
1364.835165
1369.96337
1376.556777
1385.347985
1394.139194
1404.395604
1416.117216
1429.304029
1442.490842
1453.479853
1463.003663
1470.32967
1477.655678
1482.051282
1487.179487
1492.307692
1497.435897
1499.6337
1502.564103
1506.227106
1506.959707
1506.959707
1506.227106
1505.494505
1504.029304
1502.564103
1501.098901
1500.3663
1498.901099
1497.435897
1493.040293
1487.912088
1481.318681
1473.260073
1463.736264
1452.747253
1443.223443
1435.164835
1429.304029
1425.641026
1424.908425
1425.641026
1424.175824
1424.908425
1424.908425
1424.175824
1420.512821
1416.117216
1410.989011
1406.593407
1400.732601
1394.139194
1387.545788
1378.754579
1369.96337
1361.172161
1353.846154
1347.985348
1344.322344
1342.124542
1341.391941
1341.391941
1340.659341
1337.728938
1335.531136
1332.600733
1331.868132
1331.135531
1330.40293
1327.472527
1323.809524
1317.948718
1316.483516
1314.285714
1312.087912
1308.424908
1304.761905
1301.831502
1299.6337
1297.435897
1296.703297
1297.435897
1298.168498
1296.703297
1294.505495
1294.505495
1295.238095
1297.435897
1300.3663
1301.831502
1305.494505
1315.750916
1331.868132
1350.18315
1369.96337
1389.74359
1409.52381
1427.106227
1440.29304
1448.351648
1455.677656
1460.07326
1463.736264
1465.934066
1465.934066
1466.666667
1467.399267
1468.131868
1468.864469
1470.32967
1469.59707
1466.666667
1461.538462
1454.945055
1450.549451
1448.351648
1452.014652
1455.677656
1459.340659
1462.271062
1463.736264
1463.003663
1461.538462
1461.538462
1457.875458
1452.014652
1445.421245
1439.56044
1434.432234
1429.304029
1427.106227
1424.908425
1424.175824
1421.978022
1420.512821
1417.582418
1411.721612
1403.663004
1394.871795
1384.615385
1373.626374
1366.300366
1360.43956
1354.578755
1352.380952
1349.450549
1348.717949
1347.252747
1345.787546
1345.054945
1345.787546
1345.787546
1344.322344
1344.322344
1345.787546
1346.520147
1347.252747
1347.985348
1349.450549
1350.18315
1352.380952
1353.113553
1350.915751
1347.252747
1344.322344
1342.124542
1340.659341
1339.194139
1336.996337
1334.065934
1330.40293
1326.007326
1321.611722
1317.216117
1315.750916
1315.018315
1317.216117
1321.611722
1328.205128
1335.531136
1344.322344
1355.311355
1368.498168
1384.615385
1400.732601
1414.652015
1427.838828
1438.827839
1446.153846
1453.479853
1458.608059
1464.468864
1468.131868
1472.527473
1476.190476
1481.318681
1482.783883
1484.249084
1487.179487
1486.446886
1482.051282
1476.923077
1471.062271
1463.736264
1456.410256
1449.084249
1443.956044
1440.29304
1437.362637
1435.164835
1431.501832
1428.571429
1424.908425
1421.978022
1416.849817
1413.919414
1409.52381
1406.593407
1404.395604
1403.663004
1401.465201
1402.930403
1405.860806
1410.989011
1418.315018
1426.373626
1432.967033
1437.362637
1435.164835
1429.304029
1421.245421
1413.919414
1408.058608
1405.860806
1404.395604
1402.197802
1397.069597
1392.673993
1387.545788
1381.684982
1375.824176
1369.96337
1364.102564
1360.43956
1355.311355
1351.648352
1348.717949
1347.252747
1345.787546
1345.787546
1346.520147
1345.787546
1342.857143
1339.92674
1338.461538
1339.194139
1342.857143
1348.717949
1354.578755
1361.172161
1365.567766
1369.96337
1372.893773
1375.824176
1381.684982
1390.47619
1402.197802
1413.919414
1428.571429
1446.153846
1466.666667
1489.377289
1514.285714
1539.194139
1561.172161
1582.417582
1602.197802
1617.582418
1627.106227
1632.234432
1635.164835
1633.699634
1626.373626
1615.384615
1602.930403
1588.278388
1573.626374
1555.311355
1538.461538
1520.879121
1504.029304
1490.10989
1479.120879
1469.59707
1461.538462
1454.212454
1446.886447
1441.025641
1438.095238
1434.432234
1430.769231
1427.106227
1420.512821
1412.454212
1407.326007
1403.663004
1401.465201
1400
1397.802198
1397.069597
1397.069597
1396.336996
1394.871795
1394.871795
1394.139194
1392.673993
1392.673993
1389.010989
1385.347985
1383.150183
1379.487179
1379.487179
1375.824176
1371.428571
1366.300366
1362.637363
1358.974359
1355.311355
1349.450549
1343.589744
1338.461538
1334.798535
1332.600733
1331.135531
1328.205128
1325.274725
1321.611722
1317.948718
1313.553114
1309.89011
1304.029304
1299.6337
1298.168498
1299.6337
1306.227106
1316.483516
1331.868132
1358.241758
1394.871795
1440.29304
1491.575092
1547.252747
1602.930403
1655.677656
1703.296703
1745.054945
1780.952381
1812.454212
1837.362637
1852.747253
1862.271062
1867.399267
1867.399267
1863.003663
1854.945055
1843.956044
1826.373626
1806.593407
1781.684982
1755.311355
1725.274725
1695.970696
1667.399267
1638.095238
1608.791209
1583.882784
1563.369963
1547.985348
1536.996337
1528.937729
1520.879121
1512.820513
1503.296703
1494.505495
1486.446886
1476.923077
1464.468864
1450.549451
1436.630037
1423.443223
1408.058608
1392.673993
1378.754579
1366.300366
1354.578755
1345.054945
1340.659341
1341.391941
1345.787546
1350.915751
1353.846154
1355.311355
1355.311355
1353.846154
1353.113553
1350.915751
1347.252747
1341.391941
1336.263736
1332.600733
1326.739927
1321.611722
1318.681319
1319.413919
1321.611722
1325.274725
1326.739927
1328.205128
1330.40293
1331.135531
1333.333333
1336.996337
1340.659341
1344.322344
1347.252747
1350.18315
1352.380952
1351.648352
1348.717949
1343.589744
1341.391941
1339.194139
1338.461538
1339.92674
1343.589744
1353.113553
1370.695971
1400
1439.56044
1491.575092
1554.578755
1625.641026
1700.3663
1777.289377
1853.479853
1926.007326
1991.208791
2046.886447
2093.040293
2129.67033
2153.113553
2167.032967
2172.161172
2169.230769
2161.904762
2147.985348
2128.205128
2099.6337
2063.736264
2024.908425
1985.347985
1948.717949
1912.087912
1876.923077
1843.956044
1818.315018
1794.139194
1774.358974
1756.776557
1745.054945
1736.263736
1730.40293
1726.007326
1721.611722
1717.948718
1718.681319
1720.879121
1722.344322
1719.413919
1714.285714
1708.424908
1701.098901
1688.644689
1673.992674
1654.945055
1635.164835
1612.454212
1589.74359
1567.032967
1541.391941
1517.216117
1493.772894
1471.794872
1454.945055
1439.56044
1429.304029
1419.047619
1412.454212
1408.058608
1402.197802
1394.139194
1386.813187
1381.684982
1376.556777
1374.358974
1374.358974
1374.358974
1376.556777
1380.21978
1383.150183
1384.615385
1384.615385
1385.347985
1385.347985
1386.080586
1385.347985
1383.882784
1380.952381
1377.289377
1377.289377
1377.289377
1378.754579
1378.754579
1378.754579
1380.21978
1383.882784
1387.545788
1392.673993
1399.267399
1410.989011
1430.769231
1462.271062
1504.761905
1559.70696
1624.908425
1698.901099
1775.824176
1852.014652
1923.809524
1988.278388
2043.956044
2091.575092
2129.67033
2159.70696
2179.487179
2189.010989
2189.74359
2180.952381
2166.300366
2147.985348
2123.076923
2094.505495
2062.271062
2030.03663
1995.604396
1961.172161
1923.076923
1884.249084
1846.886447
1812.454212
1780.952381
1755.311355
1734.065934
1719.413919
1704.761905
1694.505495
1687.912088
1683.516484
1680.586081
1679.85348
1678.388278
1673.992674
1666.666667
1657.875458
1646.153846
1630.769231
1614.652015
1593.406593
1568.498168
1545.787546
1521.611722
1498.168498
1476.923077
1457.142857
1438.827839
1422.710623
1408.791209
1396.336996
1385.347985
1375.824176
1368.498168
1361.904762
1356.776557
1350.18315
1341.391941
1331.135531
1322.344322
1315.750916
1310.622711
1306.227106
1304.761905
1303.296703
1303.296703
1303.296703
1304.761905
1306.227106
1306.959707
1305.494505
1304.761905
1305.494505
1304.761905
1302.564103
1300.3663
1299.6337
1298.168498
1298.168498
1296.703297
1295.970696
1294.505495
1293.772894
1295.238095
1298.901099
1304.029304
1312.087912
1322.344322
1331.868132
1341.391941
1353.846154
1365.567766
1381.684982
1404.395604
1435.897436
1475.457875
1522.344322
1576.556777
1638.095238
1702.564103
1765.567766
1821.978022
1874.725275
1923.076923
1969.230769
2008.791209
2041.025641
2065.201465
2080.586081
2085.714286
2082.051282
2070.32967
2054.212454
2031.501832
2005.128205
1977.289377
1947.985348
1915.750916
1883.516484
1854.212454
1826.373626
1799.267399
1772.893773
1746.520147
1719.413919
1693.772894
1672.527473
1652.747253
1636.630037
1622.710623
1612.454212
1602.197802
1591.941392
1582.417582
1573.626374
1564.835165
1553.113553
1539.194139
1523.076923
1508.424908
1492.307692
1476.190476
1461.538462
1449.084249
1436.630037
1424.175824
1413.186813
1403.663004
1394.871795
1386.080586
1377.289377
1368.498168
1360.43956
1352.380952
1345.787546
1339.92674
1335.531136
1330.40293
1326.007326
1319.413919
1315.750916
1312.087912
1309.89011
1306.959707
1304.029304
1303.296703
1305.494505
1309.157509
1314.285714
1318.681319
1323.076923
1327.472527
1330.40293
1331.135531
1331.135531
1329.67033
1327.472527
1324.542125
1320.14652
1317.216117
1313.553114
1306.227106
1298.168498
1288.644689
1279.120879
1271.062271
1265.934066
1263.003663
1262.271062
1263.003663
1265.201465
1270.32967
1280.586081
1300.3663
1328.205128
1368.498168
1420.512821
1478.388278
1541.391941
1608.058608
1676.923077
1742.857143
1803.663004
